LN46_0.75_1_0.5mL_s_0.5mL_Ti_0h_r,Unnamed: 3
Wavelength (nm),Abs
800.0109253,0.0004518934002
799.007019,0.001512585441
798.0026855,0.0008401387604
796.9979248,0.0008175230469
795.9926758,0.0009777774103
794.9871826,0.0008026367868
794.0158691,0.0008085237932
793.0095215,0.0008571012877
792.0026855,0.0004879397748
790.9956055,6.213076995E-005
789.9880371,0.0005322049255
789.0148926,0.000245805044
788.0064697,0.0009385254816
786.9977417,-8.070495096E-005
785.9886475,0.0003506634384
785.013855,0.0004626992159
784.0039063,0.0005607412895
782.9935913,0.000909575203
781.9829102,-0.0004454760638
781.0066528,-0.0001751609088
779.9951782,-0.0003258855722
778.9832153,0.0002209929517
778.0058594,0.0001152596233
776.9931641,0.0001482224616
776.0150757,-0.0006245932309
775.0015869,-0.0004981226521
773.987793,-0.000331938325
773.0085449,0.000111349822
771.9938965,-0.0004926928086
771.013916,-0.001083992887
769.9984741,-2.433274176E-006
768.9827881,-0.000893078919
768.0015869,-0.0003731670731
766.9850464,-0.0005323033547
766.0032959,-0.0001887194667
764.9859619,-0.0003466818016
764.0033569,3.852002919E-005
762.9852905,-0.0002006734285
762.0020142,-0.0005663261982
760.9831543,-0.0003642698575
759.9991455,-0.0002422250982
759.0147095,-0.0005360263167
757.994812,-0.000870603777
757.0096436,-0.0008366564289
755.9889526,-0.0001161089313
755.0030518,-0.0005556232645
754.0168457,-0.000502776762
752.9949951,-0.0002350327559
752.0080566,-0.0006559725152
750.9854736,-0.0004291325749
749.9978027,-0.0005173592945
749.0097046,-0.0008406868437
747.986084,-0.0009868934285
746.9972534,-0.0008510727785
746.0082397,-0.0005070688203
744.9833984,-0.0006098074955
743.9935913,-0.0005455405335
743.003418,-0.0001899614581
742.0129395,-0.0003615282185
740.9866333,-0.0003267133143
739.9954224,-0.0003436814004
739.0037842,-0.000618441205
738.0119019,-0.0002236489381
736.9841919,-0.0004099954676
735.9914551,-0.0003467335191
734.9985352,-0.0005990022328
734.005188,-0.0001835445
733.0115356,-0.0002449157182
732.0174561,-4.260621427E-005
730.9875488,3.712206671E-005
729.9928589,-1.299456198E-005
728.9976807,0.0002660079917
728.0023193,0.0001634488726
727.0065308,0.0002606722701
726.010437,0.0004957920755
725.0139771,0.0007930413703
724.0171509,0.0008972537471
722.984436,0.0007331395755
721.9869385,0.0007326728664
720.9890747,0.0009546097717
719.9909058,0.0009233496967
718.9923096,0.001010338776
717.9935913,0.0009504330228
716.9943848,0.0008967350004
715.994812,0.001095269225
714.9949341,0.001170067349
713.994751,0.001084784977
712.9941406,0.001069422462
711.9932861,0.001637081616
710.9921265,0.001520378399
709.9904785,0.00116542133
708.9885864,0.001634405344
707.9863892,0.001203655498
706.9838257,0.00147396035
706.0167236,0.001565112616
705.0135498,0.001877653645
704.0099487,0.001650177641
703.0061035,0.001448792405
702.0018311,0.001592521789
700.9973755,0.00142967701
699.9924927,0.00164830673
698.9872437,0.00191722461
698.0175781,0.001770632574
697.0117798,0.001252770424
696.0056152,0.001428430434
694.9990845,0.0016584408
693.9921875,0.001890704851
692.9850464,0.0008987842011
692.0135498,0.001262194244
691.0057373,0.001552616712
689.9975586,0.001545706415
688.9891357,0.001710673794
688.0162964,0.001630611718
687.0072021,0.001548771863
685.9978027,0.001645968179
684.9880371,0.00116209907
684.0139771,0.00128091278
683.0036621,0.001672784681
681.9929199,0.00176647387
681.0179443,0.001400745939
680.0065918,0.001425807364
678.9949951,0.001378776273
677.9829712,0.001681386144
677.0068359,0.001696900232
675.9942017,0.001282003243
675.0174561,0.001225901884
674.0042725,0.001759118401
672.9906006,0.001624141936
672.0130005,0.001802031649
670.9987793,0.002004907001
669.984314,0.001956643071
669.0056763,0.001606759615
667.9906006,0.001636925736
667.0114136,0.001246046624
665.9956665,0.001261752914
665.0159302,0.001649969723
663.9995728,0.001420924789
662.9829102,0.001446480863
662.0021362,0.001895618741
660.9849243,0.00113899936
660.0036621,0.001677436172
658.9857788,0.001715143793
658.0039063,0.001401083544
656.9853516,0.001630741637
656.0029297,0.001252770424
654.9838257,0.001557552721
654.0007935,0.001651191036
653.0174561,0.002005141228
651.9974365,0.001978486078
651.0135498,0.002052916447
649.992981,0.001492350362
649.0084229,0.00171124551
647.9871826,0.001739157713
647.0021362,0.001962415874
646.0167847,0.00196202565
644.9946899,0.001735337195
644.008728,0.001812767121
642.9860229,0.001630040118
641.9995117,0.001841023797
641.0126953,0.001704020891
639.9891357,0.001850460423
639.00177,0.001690689358
638.0141602,0.001407679869
636.989624,0.001805124921
636.0014038,0.001759742154
635.0129395,0.001858181437
633.9875488,0.001748774084
632.9985352,0.002085376298
632.0092163,0.001814378775
630.9829102,0.0020122407
629.993042,0.001517391065
629.0028687,0.001706723589
628.0123901,0.001900220639
626.9849854,0.001837592339
625.9939575,0.001920890645
625.0026855,0.001918420661
624.0111084,0.001874221838
622.9824829,0.002001578454
621.9904175,0.001825374551
620.9980469,0.001909814542
620.0054321,0.001688038697
619.0124512,0.001746174996
617.9824829,0.001705528121
616.9890137,0.001485778717
615.9951782,0.00194936234
615.0012207,0.001806268701
614.006897,0.001885895152
613.0122681,0.001667067874
612.0174561,0.001632898231
610.9855347,0.00156243681
609.9900513,0.001679151319
608.9944458,0.001676033018
607.9985352,0.001648826408
607.0023193,0.001797872712
606.0059204,0.001873571891
605.0091553,0.001845053164
604.012146,0.001688298536
603.0148926,0.001633521868
602.017395,0.001496454468
600.982605,0.001770034665
599.9846191,0.001919226605
598.9862671,0.0017229144
597.9876709,0.001652178471
596.9888306,0.002082307125
595.9896851,0.001879863441
594.9903564,0.001775752986
593.9907227,0.00199570111
592.9908447,0.001948244288
591.9907227,0.001874845824
590.9902954,0.001718444284
589.989563,0.001927988953
588.9886475,0.002256975975
587.9874878,0.002001682296
586.9860229,0.001942783827
585.984314,0.002119893674
584.9823608,0.001701266156
584.0172119,0.001885817153
583.0147705,0.001955004875
582.0120239,0.001925986842
581.0090332,0.001998899737
580.0058594,0.001827324159
579.0023804,0.001795767224
577.9985962,0.00212915428
576.9945679,0.002173066838
575.9902954,0.001957189292
574.9858398,0.002086807042
574.0183105,0.002060042694
573.0132446,0.002190029481
572.0079956,0.002163180849
571.0025024,0.002172364388
569.9967041,0.002259057714
568.9907837,0.002053904813
567.984436,0.002235535299
567.0153198,0.002078561578
566.0084839,0.002056375612
565.0015259,0.002039678162
563.9942627,0.002156833187
562.9868164,0.002237148583
562.0163574,0.0020650886
561.0084229,0.002297414234
560.0001221,0.002136308001
558.9916992,0.002319534542
557.9829712,0.002081292681
557.0114136,0.002249690238
556.0021973,0.002225023462
554.9927368,0.002304492518
553.9830933,0.002008651849
553.0105591,0.002348969458
552.0003052,0.002407272346
550.9899902,0.002262726659
550.0167847,0.002134981332
549.0058594,0.002090162365
547.9946899,0.002052500146
546.9833984,0.002375621116
546.0092773,0.00225793873
544.9974365,0.002260670997
543.9854126,0.002230825834
543.0105591,0.002063449938
541.9979858,0.002225361764
540.9851685,0.00243746792
540.0097046,0.002567671938
538.99646,0.002422057558
537.9830322,0.002132510068
537.0067749,0.002390535548
535.9928589,0.002496355679
535.0162964,0.002341109561
534.0018921,0.00219172053
532.9871826,0.002502421848
532.0099487,0.00248234882
530.994812,0.002501432551
530.0170898,0.00230657449
529.0015259,0.002584676025
527.9857178,0.002786354162
527.0073242,0.002654678421
525.9910278,0.002789063845
525.012207,0.002825226402
523.9955444,0.002634963021
523.0162354,0.002653324045
521.9991455,0.002851542784
520.9817505,0.002738420153
520.0018311,0.002727244981
518.9839478,0.002794170054
518.0036011,0.002811834449
516.9853516,0.002982678823
516.0045776,0.002849927172
514.9859009,0.002822021721
514.0046387,0.002848441945
512.9855347,0.002973790979
512.0039063,0.002936286619
510.9842224,0.003015964292
510.0021667,0.003062651493
508.9820862,0.003097794252
507.9996338,0.003064632881
507.0169678,0.003057463793
505.9962463,0.003086453304
505.0131531,0.003300415352
503.9919739,0.003206472844
503.0084534,0.003338107606
501.9868469,0.003468294628
501.0029297,0.00337828137
500.0187683,0.003392395331
498.996582,0.003740874818
498.0119934,0.003713852027
496.9893188,0.003779049264
496.004364,0.003957615234
494.9812927,0.003592413152
493.9958801,0.003641068237
493.0102844,0.003482803004
491.9866028,0.003663909622
491.0006104,0.003902211785
490.0144043,0.003948602825
488.9900208,0.003824669635
488.0034485,0.004015089478
487.0166626,0.004385327455
485.9916382,0.004176162183
485.004425,0.00403865613
484.0170288,0.004009550437
482.9914246,0.00455543166
482.0036316,0.004641241394
481.015625,0.004422878381
479.9894104,0.004611729179
479.0010071,0.004620860331
478.0123596,0.004858850501
476.9855347,0.004656626377
475.9965515,0.00486316951
475.0073242,0.004895762075
474.0179443,0.004817780107
472.9902954,0.004965011962
472.0005493,0.00509615941
471.0105896,0.004940269049
469.9822998,0.005172304809
468.9919739,0.005288709421
468.0014343,0.005450046156
467.0107117,0.005457071122
465.9815674,0.005540332291
464.990448,0.005252262577
463.9990845,0.005751913413
463.0075989,0.005758523475
462.0158997,0.005800758488
460.9858704,0.005676007364
459.9938049,0.00582688814
459.0015259,0.006262302864
458.0090637,0.006220259704
457.0163879,0.006237695925
455.9854126,0.006209230982
454.9923706,0.006370357703
453.999176,0.006473605521
453.0057983,0.006327989046
452.0121765,0.006484614685
451.0184326,0.006796641741
449.9862671,0.00660665473
448.9920959,0.00687432196
447.9977417,0.007023278624
447.0032959,0.007011729293
446.008606,0.007137128152
445.0137329,0.007368339691
444.0186462,0.007218790706
442.985199,0.007537772879
441.9897461,0.007451863028
440.9941711,0.007510196418
439.9983826,0.007873358205
439.0024414,0.007742002141
438.0062866,0.008050688542
437.0099182,0.008046047762
436.0134277,0.008039428852
435.0168152,0.008206037804
433.9815674,0.008196013048
432.9845581,0.008411214687
431.9873657,0.008518565446
430.9900208,0.008571735583
429.9924316,0.008611974306
428.9946899,0.008888833225
427.9967957,0.008975873701
426.9986877,0.009075274691
426.0004272,0.009145512246
425.0020142,0.009067742154
424.003418,0.0093812868
423.0046082,0.009515362792
422.0056763,0.0096560698
421.0065918,0.009887699969
420.0072632,0.01016728207
419.007782,0.0100929318
418.0081177,0.01030918118
417.0083923,0.01051641535
416.0083923,0.01073428243
415.0082397,0.01112508867
414.0079041,0.01146438811
413.0074158,0.01184686087
412.0067749,0.01194034982
411.0059509,0.01262142416
410.0049133,0.0128763197
409.0038147,0.01346339844
408.0025024,0.0141046159
407.0009766,0.01484877151
405.9993286,0.01579538733
404.9975586,0.01676973701
403.9955139,0.01772279106
402.9933777,0.01915457286
401.9910889,0.02036944591
400.9886169,0.02241844125
399.9859619,0.02432397753
398.9831543,0.0269530341
398.0187683,0.03000072017
397.015625,0.03294576705
396.0123596,0.03709848225
395.0088806,0.04181880504
394.0052795,0.04742825776
393.0015259,0.05354340002
391.9975891,0.0613518022
390.9935303,0.06965915859
389.9892578,0.07958756387
388.9848633,0.09185069799
388.0189209,0.1044282168
387.0142212,0.1201743707
386.0093384,0.1373873055
385.0043335,0.1580854952
383.999115,0.1819921136
382.9937744,0.2066855729
381.9882507,0.237076059
380.9826355,0.2742407918
380.0155029,0.3131580353
379.0095215,0.3596220016
378.0034485,0.4132677019
376.9971313,0.4678463638
375.9907227,0.5286266804
374.9841614,0.6004843712
374.0161438,0.6784858108
373.0092468,0.766430378
372.0022278,0.8659567833
370.9950562,0.9681699872
369.9877319,1.081502557
369.0190125,1.214808583
368.0113831,1.35384798
367.0036011,1.51301074
365.9956665,1.675219417
364.9876099,1.859321952
364.018158,2.043832064
363.0097656,2.266153097
362.0012512,2.477784157
360.9926147,2.637619495
359.9837952,2.912787199
359.0136108,3.181360483
358.0045471,3.408416748
356.9953003,3.892348528
355.9859009,3.925172329
355.0152283,3.515584946
354.0055542,3.909123182
352.995697,3.86614275
351.9857788,3.558638573
351.0144958,3.605960131
350.0042419,3.442215681
348.993866,10
347.9833374,10
347.0115356,10
346.0007629,3.865993261
344.9898071,4.434159279
344.0175781,10
343.0063782,3.672376871
341.9950256,3.895412445
340.9835205,3.623570204
340.0107727,3.783490181
338.9990234,4.229362488
337.9871216,4.019720554
337.0139771,3.650814056
336.0018005,4.033512592
334.9894714,3.743010521
334.0159607,3.872947216
333.0033875,10
331.9906616,10
331.0167542,3.995542765
330.0037842,4.891593456
328.9906311,3.722222805
328.0163574,3.651060104
327.0029602,10
325.9894714,3.535788536
325.014801,5.139020443
324.0010376,4.063769817
322.9871216,4.124821186
322.0121155,10
320.9979248,3.964037657
319.9836121,3.841213465
319.0082092,3.918929577
317.9936523,4.168162823
317.0180054,10
316.0032043,5.218244553
314.9882507,3.920241833
314.0122375,3.968696356
312.9970093,3.86917305
311.98172,3.742782116
311.0053406,4.281770229
309.9897461,3.710349321
309.0131226,4.069895744
307.997345,3.806069374
306.9813843,3.586898804
306.004364,3.792551756
304.9881897,3.91643405
304.0110168,3.92812109
302.9945679,3.588183165
302.0171204,3.735741138
301.0004883,10
299.9836426,3.949108601
299.0058594,4.294960499
297.9888306,3.845980883
297.0107727,3.631536484
295.9935303,3.946885109
295.0152588,3.983331203
293.9977722,4.43031311
293.0192566,10
292.0015259,4.192133904
290.9836426,4.228315353
290.0048523,3.798438549
288.9867554,4.098626137
288.0076904,10
286.9893799,3.936115026
286.0101013,3.915194035
284.9915771,3.83546257
284.012085,3.901490211
282.9932861,4.72246933
282.0135803,10
280.9945679,3.603090525
280.0146484,3.873892784
278.9954224,3.806068182
278.0153198,10
276.9958496,3.736936331
276.0154724,3.733647346
274.9958191,3.761389256
274.0152588,3.785490513
272.9953613,3.986588001
272.0145569,4.019460678
270.9944763,3.637064219
270.0134888,3.680226088
268.9931641,3.859810352
268.0119629,3.918600559
266.9914551,3.718779564
266.0100403,3.745133877
264.9892883,3.915727139
264.0076599,3.745589733
262.9866943,10
262.0048828,4.368957996
260.9837341,3.800872564
260.001709,3.773665905
259.0196533,4.061165333
257.9981384,4.567848682
257.0158386,3.755964518
255.9941406,3.840428829
255.011673,3.938141823
253.9897461,10
253.0070496,4.028010368
251.9849548,4.035570621
251.0020752,4.417039871
250.0190887,3.989049673
248.9966736,4.040779114
248.0135193,3.734205008
246.9909363,3.703281403
246.0075531,3.901417494
244.9847412,3.946524382
244.0011902,3.986187458
243.0175476,3.959866285
241.9944458,3.721943617
241.0106201,3.889536619
239.9873657,3.98986721
239.0033417,3.833802223
238.0192261,4.072445393
236.9956665,10
236.0113678,3.788620949
234.9876099,3.794239759
234.0031586,3.913408995
233.0186005,10
231.9945526,3.998874903
231.0098114,3.988905191
229.9855957,3.614128351
229.0006714,3.821424961
228.0157013,3.611937046
226.9911957,3.565841675
226.0059967,3.705551863
224.9813385,3.583088636
223.9959869,3.611890316
223.0105438,3.524242878
221.9855957,3.684837103
221,3.800237179
220.0142975,4.293478966
218.9891205,3.723663092
218.0032501,3.444713354
217.0173187,4.274366379
215.9918518,3.421681404
215.0057373,3.676529646
214.0195618,3.477237225
212.9938354,3.582731247
212.0074921,3.424499989
210.9815826,3.430127144
209.9950714,3.421799183
209.0084534,3.453787327
207.9823303,3.711854219
206.995575,3.677358627
206.0087585,3.335527897
204.9823456,3.558172941
203.9953613,3.364105463
203.0082855,3.54759264
201.9816742,3.272814274
200.9944458,3.281030893
200.0071564,3.483760118
