LN46_0.75_1_0.5mL_s_0.5mL_Ti_1h,Unnamed: 1
Wavelength (nm),Abs
800.0109253,0.006409788504
799.007019,0.006556220818
798.0026855,0.006209309679
796.9979248,0.007012439892
795.9926758,0.006512467284
794.9871826,0.005727309268
794.0158691,0.006556457374
793.0095215,0.006509682164
792.0026855,0.006221257616
790.9956055,0.00651117973
789.9880371,0.006460047793
789.0148926,0.005956170615
788.0064697,0.005484569818
786.9977417,0.005341433454
785.9886475,0.005793412682
785.013855,0.006037532818
784.0039063,0.005596286152
782.9935913,0.005470911972
781.9829102,0.005894450005
781.0066528,0.005908856168
779.9951782,0.005585744977
778.9832153,0.006369333249
778.0058594,0.006104995962
776.9931641,0.005442549009
776.0150757,0.005802751984
775.0015869,0.005250900052
773.987793,0.005171466153
773.0085449,0.005296544172
771.9938965,0.005510942545
771.013916,0.004988656379
769.9984741,0.005101502407
768.9827881,0.004968363326
768.0015869,0.00587495463
766.9850464,0.00480369851
766.0032959,0.005513302051
764.9859619,0.004938986152
764.0033569,0.004904296249
762.9852905,0.005460819695
762.0020142,0.005085054319
760.9831543,0.00553854974
759.9991455,0.005485120229
759.0147095,0.005084058736
757.994812,0.005321071483
757.0096436,0.005067349412
755.9889526,0.005393272731
755.0030518,0.005724056624
754.0168457,0.00535639748
752.9949951,0.004594619386
752.0080566,0.004837542772
750.9854736,0.005418670364
749.9978027,0.004789329134
749.0097046,0.004918250721
747.986084,0.004910160787
746.9972534,0.004599878099
746.0082397,0.00504307216
744.9833984,0.005009474233
743.9935913,0.004608930089
743.003418,0.005275870208
742.0129395,0.004953622352
740.9866333,0.005070309155
739.9954224,0.005454738159
739.0037842,0.00517987553
738.0119019,0.005168479867
736.9841919,0.005069785286
735.9914551,0.004943227861
734.9985352,0.005081439856
734.005188,0.005170366261
733.0115356,0.005506276153
732.0174561,0.005466455594
730.9875488,0.005749526434
729.9928589,0.006076670717
728.9976807,0.005871858448
728.0023193,0.005946644116
727.0065308,0.006415489595
726.010437,0.006106256042
725.0139771,0.0065205344
724.0171509,0.005935044959
722.984436,0.00629239995
721.9869385,0.006388142239
720.9890747,0.005846644286
719.9909058,0.00693465583
718.9923096,0.006487898994
717.9935913,0.006585234776
716.9943848,0.006830194499
715.994812,0.006722156424
714.9949341,0.006772767287
713.994751,0.007029645145
712.9941406,0.00731947599
711.9932861,0.007097631227
710.9921265,0.00718049705
709.9904785,0.006962037645
708.9885864,0.006708486006
707.9863892,0.007010098547
706.9838257,0.007189550437
706.0167236,0.006906092167
705.0135498,0.007086921949
704.0099487,0.006982082035
703.0061035,0.007635660004
702.0018311,0.007293782663
700.9973755,0.006268422119
699.9924927,0.007378239185
698.9872437,0.007322529797
698.0175781,0.007785747759
697.0117798,0.007583236787
696.0056152,0.007411994971
694.9990845,0.007561399601
693.9921875,0.007668987848
692.9850464,0.007178734057
692.0135498,0.007640797645
691.0057373,0.007677313872
689.9975586,0.0073477244
688.9891357,0.007522364613
688.0162964,0.007509801537
687.0072021,0.007487625815
685.9978027,0.007992255501
684.9880371,0.007513225544
684.0139771,0.007638399955
683.0036621,0.007623699494
681.9929199,0.007491339464
681.0179443,0.007802588399
680.0065918,0.007683611009
678.9949951,0.007323740516
677.9829712,0.007919305004
677.0068359,0.007628310006
675.9942017,0.007432850078
675.0174561,0.007567273453
674.0042725,0.00769625837
672.9906006,0.007501900196
672.0130005,0.007166259456
670.9987793,0.007718918845
669.984314,0.007650888059
669.0056763,0.00724661164
667.9906006,0.007593062241
667.0114136,0.007067451719
665.9956665,0.007368128747
665.0159302,0.007470981684
663.9995728,0.007212526631
662.9829102,0.007682873402
662.0021362,0.007622382604
660.9849243,0.006708170287
660.0036621,0.007615611888
658.9857788,0.007475722115
658.0039063,0.008074422367
656.9853516,0.007773783058
656.0029297,0.008454394527
654.9838257,0.007861047983
654.0007935,0.007998161949
653.0174561,0.007844020613
651.9974365,0.007982236333
651.0135498,0.007957400754
649.992981,0.00821928028
649.0084229,0.008163145743
647.9871826,0.008305923082
647.0021362,0.008139143698
646.0167847,0.007996658795
644.9946899,0.007709564641
644.008728,0.008326767944
642.9860229,0.007936546579
641.9995117,0.008562758565
641.0126953,0.007848027162
639.9891357,0.008018122055
639.00177,0.008444179781
638.0141602,0.008028591052
636.989624,0.008276899345
636.0014038,0.008315712214
635.0129395,0.008513364941
633.9875488,0.008333338425
632.9985352,0.009038746357
632.0092163,0.008242522366
630.9829102,0.008296160027
629.993042,0.008538681082
629.0028687,0.008614931256
628.0123901,0.008580870926
626.9849854,0.008611181751
625.9939575,0.008851977065
625.0026855,0.008745442145
624.0111084,0.008593016304
622.9824829,0.008767998777
621.9904175,0.009120847099
620.9980469,0.008817528374
620.0054321,0.008901937865
619.0124512,0.009133245796
617.9824829,0.009018316865
616.9890137,0.009064649232
615.9951782,0.008939379826
615.0012207,0.008941229433
614.006897,0.009098086506
613.0122681,0.009044745937
612.0174561,0.009344997816
610.9855347,0.00901910942
609.9900513,0.00944247283
608.9944458,0.009575958364
607.9985352,0.009218933061
607.0023193,0.009585511871
606.0059204,0.00977415964
605.0091553,0.009897392243
604.012146,0.009969934821
603.0148926,0.009955790825
602.017395,0.01005610544
600.982605,0.009982065298
599.9846191,0.01002508402
598.9862671,0.01007759105
597.9876709,0.01038661785
596.9888306,0.01068793051
595.9896851,0.01065015234
594.9903564,0.01070156787
593.9907227,0.01098284218
592.9908447,0.01106231101
591.9907227,0.01097893994
590.9902954,0.01132978965
589.989563,0.01146372408
588.9886475,0.01201549545
587.9874878,0.01205879543
586.9860229,0.01215054654
585.984314,0.0121861659
584.9823608,0.01266840938
584.0172119,0.01275322493
583.0147705,0.01299483515
582.0120239,0.0130373789
581.0090332,0.01294584107
580.0058594,0.01319308113
579.0023804,0.01368469931
577.9985962,0.01374865882
576.9945679,0.01395492163
575.9902954,0.01410803851
574.9858398,0.01441058144
574.0183105,0.01443953533
573.0132446,0.01494197175
572.0079956,0.01524600759
571.0025024,0.01531588193
569.9967041,0.0156181138
568.9907837,0.01587442495
567.984436,0.01627329923
567.0153198,0.01650176384
566.0084839,0.01726294495
565.0015259,0.01727948338
563.9942627,0.01746347174
562.9868164,0.01769189164
562.0163574,0.01857299358
561.0084229,0.01885411516
560.0001221,0.01899904571
558.9916992,0.01961055025
557.9829712,0.01995017938
557.0114136,0.02042492852
556.0021973,0.02085453831
554.9927368,0.02134322003
553.9830933,0.0215959698
553.0105591,0.02221844718
552.0003052,0.02267882787
550.9899902,0.02322890237
550.0167847,0.0238472186
549.0058594,0.02418952063
547.9946899,0.02467364073
546.9833984,0.0257838238
546.0092773,0.02580266818
544.9974365,0.02644017711
543.9854126,0.02715872228
543.0105591,0.02784583531
541.9979858,0.02844384313
540.9851685,0.0291843731
540.0097046,0.03010921553
538.99646,0.03058106825
537.9830322,0.03164471686
537.0067749,0.03209045157
535.9928589,0.03301480785
535.0162964,0.03361936659
534.0018921,0.03477427363
532.9871826,0.03603420779
532.0099487,0.03655894846
530.994812,0.0375552997
530.0170898,0.03847714514
529.0015259,0.0392938219
527.9857178,0.04100579023
527.0073242,0.04153264686
525.9910278,0.04286707938
525.012207,0.04382404685
523.9955444,0.04544203728
523.0162354,0.04611070082
521.9991455,0.04748843238
520.9817505,0.04881322384
520.0018311,0.04987061024
518.9839478,0.05121676624
518.0036011,0.05214194953
516.9853516,0.05405898765
516.0045776,0.05538812652
514.9859009,0.05657792091
514.0046387,0.05822847784
512.9855347,0.05985190347
512.0039063,0.06109297648
510.9842224,0.06310519576
510.0021667,0.06418771297
508.9820862,0.06629211456
507.9996338,0.06792643666
507.0169678,0.06949861348
505.9962463,0.07157475501
505.0131531,0.07359913737
503.9919739,0.07529720664
503.0084534,0.07726176083
501.9868469,0.07941100001
501.0029297,0.08128019422
500.0187683,0.08338217437
498.996582,0.08562646061
498.0119934,0.08792870492
496.9893188,0.09035288543
496.004364,0.09233675897
494.9812927,0.09424676001
493.9958801,0.09679913521
493.0102844,0.09885428101
491.9866028,0.101501286
491.0006104,0.1037526429
490.0144043,0.1063138917
488.9900208,0.1088219136
488.0034485,0.1114864275
487.0166626,0.1143075749
485.9916382,0.1170096546
485.004425,0.1195116416
484.0170288,0.1221686453
482.9914246,0.1249828115
482.0036316,0.127757147
481.015625,0.1305669695
479.9894104,0.1337670386
479.0010071,0.1365216672
478.0123596,0.1395711899
476.9855347,0.1428725719
475.9965515,0.1463139355
475.0073242,0.1493760794
474.0179443,0.1522322446
472.9902954,0.1561215818
472.0005493,0.1590312719
471.0105896,0.1624405235
469.9822998,0.1661559045
468.9919739,0.1689834595
468.0014343,0.1725039482
467.0107117,0.1757930666
465.9815674,0.1793398708
464.990448,0.1828993261
463.9990845,0.1857886463
463.0075989,0.1897836179
462.0158997,0.1931193322
460.9858704,0.1966257393
459.9938049,0.200473398
459.0015259,0.2040663958
458.0090637,0.2077562511
457.0163879,0.2111029029
455.9854126,0.2150056958
454.9923706,0.2185876369
453.999176,0.2220753729
453.0057983,0.2258662581
452.0121765,0.2293502241
451.0184326,0.2329321206
449.9862671,0.2367290556
448.9920959,0.2404118627
447.9977417,0.2441561222
447.0032959,0.2474722564
446.008606,0.2511856258
445.0137329,0.254612416
444.0186462,0.2582508922
442.985199,0.2622149885
441.9897461,0.2653518021
440.9941711,0.2685670853
439.9983826,0.2719850242
439.0024414,0.2750405669
438.0062866,0.2787065208
437.0099182,0.2817382216
436.0134277,0.2848389447
435.0168152,0.2875866294
433.9815674,0.2905786335
432.9845581,0.2940821052
431.9873657,0.2970862687
430.9900208,0.2994889021
429.9924316,0.3023763299
428.9946899,0.3054119647
427.9967957,0.3082930744
426.9986877,0.3109032512
426.0004272,0.3133016825
425.0020142,0.3156603277
424.003418,0.3177369535
423.0046082,0.3201352954
422.0056763,0.3224041462
421.0065918,0.3245631456
420.0072632,0.3262258172
419.007782,0.3281927705
418.0081177,0.3294332027
417.0083923,0.3314223886
416.0083923,0.3332017958
415.0082397,0.3346617818
414.0079041,0.335884124
413.0074158,0.337426126
412.0067749,0.3383149803
411.0059509,0.3391850889
410.0049133,0.3399952352
409.0038147,0.3409795463
408.0025024,0.3418111801
407.0009766,0.3427394331
405.9993286,0.3431049287
404.9975586,0.3437507153
403.9955139,0.3443408906
402.9933777,0.3455890119
401.9910889,0.3464481235
400.9886169,0.3473207951
399.9859619,0.3483321965
398.9831543,0.3492395878
398.0187683,0.3505776227
397.015625,0.3520615697
396.0123596,0.3544272482
395.0088806,0.3564982116
394.0052795,0.3591314554
393.0015259,0.363758266
391.9975891,0.3682091832
390.9935303,0.3729441166
389.9892578,0.3794645369
388.9848633,0.3871809244
388.0189209,0.396264255
387.0142212,0.4066407382
386.0093384,0.4186039269
385.0043335,0.4339370131
383.999115,0.4513518214
382.9937744,0.4695069194
381.9882507,0.4926664531
380.9826355,0.5200164914
380.0155029,0.5499664545
379.0095215,0.5883358717
378.0034485,0.6294092536
376.9971313,0.6717956066
375.9907227,0.7203169465
374.9841614,0.7784764767
374.0161438,0.8411000371
373.0092468,0.9090332985
372.0022278,0.989895463
370.9950562,1.071913481
369.9877319,1.168726087
369.0190125,1.273046255
368.0113831,1.390582442
367.0036011,1.524489284
365.9956665,1.653117537
364.9876099,1.800576687
364.018158,1.963115692
363.0097656,2.14296484
362.0012512,2.34807682
360.9926147,2.490092993
359.9837952,2.715882301
359.0136108,2.914866924
358.0045471,3.213597059
356.9953003,3.188695431
355.9859009,3.746170998
355.0152283,3.42620635
354.0055542,10
352.995697,4.194984436
351.9857788,4.27084589
351.0144958,3.934691191
350.0042419,4.027929306
348.993866,10
347.9833374,4.742630959
347.0115356,3.800402164
346.0007629,3.716509104
344.9898071,3.853295803
344.0175781,4.452804089
343.0063782,10
341.9950256,10
340.9835205,3.55262208
340.0107727,10
338.9990234,3.689672947
337.9871216,3.544750929
337.0139771,10
336.0018005,10
334.9894714,4.338410854
334.0159607,3.681091785
333.0033875,4.579612255
331.9906616,3.810663223
331.0167542,3.637888432
330.0037842,4.470466614
328.9906311,4.173357964
328.0163574,4.264659405
327.0029602,10
325.9894714,4.282861233
325.014801,3.826904774
324.0010376,5.226380825
322.9871216,4.064341545
322.0121155,3.734421492
320.9979248,10
319.9836121,10
319.0082092,10
317.9936523,4.683245182
317.0180054,10
316.0032043,4.360771179
314.9882507,4.090466499
314.0122375,10
312.9970093,4.042535305
311.98172,10
311.0053406,4.230323315
309.9897461,3.999988794
309.0131226,4.762419701
307.997345,10
306.9813843,4.260800362
306.004364,4.386464596
304.9881897,3.956387043
304.0110168,3.829217196
302.9945679,4.485594273
302.0171204,4.329217434
301.0004883,10
299.9836426,10
299.0058594,10
297.9888306,4.274971962
297.0107727,4.229646206
295.9935303,3.869711399
295.0152588,4.143973351
293.9977722,10
293.0192566,10
292.0015259,10
290.9836426,4.776310444
290.0048523,3.759606838
288.9867554,3.817874908
288.0076904,10
286.9893799,10
286.0101013,10
284.9915771,10
284.012085,4.870628357
282.9932861,4.00274086
282.0135803,4.23689127
280.9945679,3.715270281
280.0146484,3.818069696
278.9954224,4.142025948
278.0153198,10
276.9958496,3.684108973
276.0154724,4.094828129
274.9958191,4.108445168
274.0152588,3.947907448
272.9953613,10
272.0145569,4.162855625
270.9944763,3.709877253
270.0134888,3.977265596
268.9931641,4.103878021
268.0119629,4.227293968
266.9914551,4.0744977
266.0100403,3.705949068
264.9892883,4.273795128
264.0076599,3.857009649
262.9866943,4.457164764
262.0048828,10
260.9837341,3.871072292
260.001709,3.994960546
259.0196533,4.043435097
257.9981384,10
257.0158386,4.046591282
255.9941406,3.995860338
255.011673,3.843358278
253.9897461,10
253.0070496,4.968615532
251.9849548,3.880634785
251.0020752,10
250.0190887,10
248.9966736,4.132071495
248.0135193,3.882925987
246.9909363,3.966884375
246.0075531,3.863743544
244.9847412,4.597122669
244.0011902,4.251111507
243.0175476,3.866556168
241.9944458,3.97060895
241.0106201,4.518053055
239.9873657,3.839871168
239.0033417,4.018890858
238.0192261,3.961758614
236.9956665,5.014562607
236.0113678,5.334947109
234.9876099,3.674420118
234.0031586,3.973879814
233.0186005,4.61848259
231.9945526,4.438186169
231.0098114,10
229.9855957,4.009084225
229.0006714,4.230607986
228.0157013,3.65858984
226.9911957,3.794952393
226.0059967,3.804798365
224.9813385,3.719894886
223.9959869,3.764317036
223.0105438,3.888172626
221.9855957,3.909140348
221,3.719082117
220.0142975,4.012690067
218.9891205,3.676625729
218.0032501,3.62250185
217.0173187,3.851930857
215.9918518,3.465961933
215.0057373,4.000816822
214.0195618,3.461197853
212.9938354,4.277422905
212.0074921,3.543280125
210.9815826,3.613901377
209.9950714,3.435435534
209.0084534,3.443789482
207.9823303,3.926459074
206.995575,4.231791496
206.0087585,3.511337042
204.9823456,3.417927027
203.9953613,3.585858583
203.0082855,3.621694803
201.9816742,3.408248901
200.9944458,3.282792807
200.0071564,3.424654245
