LN46_0.75_1_0.5mL_s_0.5mL_Ti_4mL_H2O_DF10_24h,,LN46_0.75_2_0.5mL_s_0.5mL_Ti_4mL_H2O_DF10_24h,,LN46_0.75_3_0.5mL_s_0.5mL_Ti_4mL_H2O_DF10_24h,,LN46_0.75_4_0.5mL_s_0.5mL_Ti_4mL_H2O_DF10_24h,,
Wavelength (nm),Abs,Wavelength (nm),Abs,Wavelength (nm),Abs,Wavelength (nm),Abs,
799.9927368,0.001257625176,799.9927368,-0.0002539706184,799.9927368,0.002392773982,799.9927368,0.009667504579,
798.9887695,0.001026685233,798.9887695,0.0003507670481,798.9887695,0.002492294181,798.9887695,0.009124522097,
797.984314,0.001295322203,797.984314,0.0002629256924,797.984314,0.002144268248,797.984314,0.008700489998,
797.0142212,0.0009427021723,797.0142212,-0.0007150545134,797.0142212,0.001816068427,797.0142212,0.008368065581,
796.0089111,0.0005222267355,796.0089111,-0.0004759891017,796.0089111,0.001597770024,796.0089111,0.00755684264,
795.0032349,0.0006440283614,795.0032349,-0.0004863837385,795.0032349,0.00158412999,795.0032349,0.007320739329,
793.9973145,0.0004923712695,793.9973145,-0.0003420777502,793.9973145,0.00158535107,793.9973145,0.007345670834,
792.9909058,0.001353042433,792.9909058,0.0006059471052,792.9909058,0.001957319211,792.9909058,0.00764914928,
791.9840698,0.001142736757,791.9840698,5.332836736E-005,791.9840698,0.001827168162,791.9840698,0.006956434809,
791.0115356,-6.590067642E-005,791.0115356,-0.0005706693628,791.0115356,0.001084499527,791.0115356,0.006461282726,
790.0040283,0.001473129261,790.0040283,0.0002185325429,790.0040283,0.002051277785,790.0040283,0.00668971613,
788.9960327,0.001142062014,788.9960327,-0.000241293732,788.9960327,0.001973597333,788.9960327,0.00605798047,
787.9876099,-1.604927093E-006,787.9876099,-0.0004362182808,787.9876099,0.001415393082,787.9876099,0.005345574114,
787.0135498,0.0005226155045,787.0135498,-0.0001622229465,787.0135498,0.001128280535,787.0135498,0.005682432558,
786.0043945,0.0005876465002,786.0043945,-0.0003762189881,786.0043945,0.001302540069,786.0043945,0.005057999864,
784.994873,0.0008640265441,784.994873,0.0002018280065,784.994873,0.001496220706,784.994873,0.005605752114,
783.9848633,0.0005852358299,783.9848633,-0.0007098341011,783.9848633,0.001605486497,783.9848633,0.005455524661,
783.0092773,0.0005594452959,783.0092773,-3.727563353E-006,783.0092773,0.001391760539,783.0092773,0.00520193344,
781.9985352,0.001451960998,781.9985352,0.0001483260421,781.9985352,0.001848614658,781.9985352,0.005371152423,
780.9874268,0.000689035398,780.9874268,-8.779633208E-005,780.9874268,0.002039392013,780.9874268,0.00496516889,
780.0107422,-0.0002671645489,780.0107422,-0.0004561817332,780.0107422,0.0008541444549,780.0107422,0.004168478306,
778.9988403,0.0006460504374,778.9988403,3.681140879E-005,778.9988403,0.001837098505,778.9988403,0.004852123093,
777.9864502,0.0003656119516,777.9864502,-0.0007032697322,777.9864502,0.001191974618,777.9864502,0.004338000901,
777.008667,0.000398049684,777.008667,-9.333476919E-005,777.008667,0.001714753918,777.008667,0.005020446144,
775.9955444,6.161297642E-005,775.9955444,-0.0001279613789,775.9955444,0.0006000368739,775.9955444,0.003783331718,
775.0170288,8.167790656E-005,775.0170288,-0.0006355529767,775.0170288,0.00171233702,775.0170288,0.004135313444,
774.0031128,0.0006111574476,774.0031128,-0.0009817796526,774.0031128,0.00119457033,774.0031128,0.003872567089,
772.9888306,0.0008186642081,772.9888306,-0.0001107778153,772.9888306,0.001070356579,772.9888306,0.003678659443,
772.0091553,4.791757237E-005,772.0091553,-0.0004746445047,772.0091553,0.001217361423,772.0091553,0.00328025315,
770.9940796,0.0005209827214,770.9940796,-0.0004139781231,770.9940796,0.001534951618,770.9940796,0.003001862671,
770.0137329,0.0002548185585,770.0137329,-0.0004300635483,770.0137329,0.001489233342,770.0137329,0.003672446124,
768.9979248,0.0006465689512,768.9979248,-0.0002194058034,768.9979248,0.001303085242,768.9979248,0.00338112493,
768.0167236,0.0004501831427,768.0167236,-0.0006196302711,768.0167236,0.001341201714,768.0167236,0.002659132006,
767.0001831,0.0001338769798,767.0001831,-0.0006788722822,767.0001831,0.001479025348,767.0001831,0.002830072772,
765.9832153,0.0005221230676,765.9832153,4.566524876E-005,765.9832153,0.001725877053,765.9832153,0.002439784817,
765.0009766,0.0006858723355,765.0009766,-0.0005328204134,765.0009766,0.001347407699,765.0009766,0.001839620061,
763.9831543,0.0007176598301,763.9831543,-0.0001148667361,763.9831543,0.002014139201,763.9831543,0.002238319488,
763.0002441,-0.0002153178648,763.0002441,-0.0008892039768,763.0002441,0.00102935778,763.0002441,0.00135909277,
762.0168457,0.0005788074923,762.0168457,-0.0002695963194,762.0168457,0.00169819966,762.0168457,0.002548507182,
760.9979858,0.0001950686856,760.9979858,-0.0005509697367,760.9979858,0.001354574459,760.9979858,0.001712025143,
760.013916,0.0005483779241,760.013916,-0.0004163056437,760.013916,0.001872194116,760.013916,0.001893018838,
758.9943237,0.0007929375861,758.9943237,3.349773397E-005,758.9943237,0.001723226276,758.9943237,0.001862496953,
758.0094604,-7.030060078E-005,758.0094604,-0.000670756679,758.0094604,0.001192701398,758.0094604,0.00134974462,
756.9891357,0.0004822644114,756.9891357,-6.496891729E-005,756.9891357,0.001208457747,756.9891357,0.001653919346,
756.00354,0.0003791360068,756.00354,-0.0006622790825,756.00354,0.001334216911,756.00354,0.001450610464,
755.0177002,-0.0002836693311,755.0177002,-0.001037718495,755.0177002,0.0009739376837,755.0177002,0.0008789927233,
753.9961548,-0.0002555746178,753.9961548,-0.001264653751,753.9961548,0.000484130258,753.9961548,0.0005644477787,
753.0095215,0.0001875843445,753.0095215,-0.0004175986978,753.0095215,0.0008526141755,753.0095215,0.001109542674,
751.9872437,0.000245546049,751.9872437,-0.0006775282673,751.9872437,0.001172688906,751.9872437,0.0008951785858,
750.999939,-0.0001964818221,750.999939,-0.0007202748093,750.999939,0.0005901867407,750.999939,0.0005341487704,
750.012207,0.0004230273771,750.012207,-0.0004588710435,750.012207,0.0009360609693,750.012207,0.0008591503138,
748.9887695,0.0002871703182,748.9887695,-0.0006246966077,748.9887695,0.001066178782,748.9887695,0.001036259928,
748.0003662,0.000646931876,748.0003662,-0.0004436658928,748.0003662,0.001348731923,748.0003662,0.001139492495,
747.0115967,0.00014571067,747.0115967,-0.0006837311666,747.0115967,0.0006420062273,747.0115967,0.000548429729,
745.9870605,0.0006718720542,745.9870605,-0.0007969186408,745.9870605,0.001222968567,745.9870605,0.0007823829073,
744.9976807,0.0002140779397,744.9976807,-0.001029093051,744.9976807,0.0005654068082,744.9976807,0.0007113592001,
744.0077515,2.555020183E-005,744.0077515,-0.001047118334,744.0077515,0.001057563582,744.0077515,0.00053736259,
743.0175781,4.175607319E-005,743.0175781,-0.0005792521406,743.0175781,0.0009650649154,743.0175781,0.0007159485249,
741.9915771,0.0002140779397,741.9915771,-0.0007232209318,741.9915771,0.000901507854,741.9915771,0.0008271968109,
741.0006714,0.0001636301458,741.0006714,-0.0005511765485,741.0006714,0.000855415361,741.0006714,0.0006067247596,
740.0093994,-5.684186544E-005,740.0093994,-0.0008755122544,740.0093994,0.0005495960941,740.0093994,0.0003748870222,
738.9823608,0.0003927123325,738.9823608,-0.0007367624203,738.9823608,0.0008566084434,738.9823608,0.0005417427747,
737.9904175,0.000404941733,737.9904175,-0.0007611049805,737.9904175,0.0005514363293,737.9904175,0.0008255369612,
736.9980469,0.0004697218537,736.9980469,-0.0005515901721,736.9980469,0.000998066389,736.9980469,0.0008268337115,
736.0053711,0.0001817834273,736.0053711,-0.0004817294539,736.0053711,0.0007996284403,736.0053711,0.0002867040457,
735.0123291,-0.0003226781264,735.0123291,-0.0008537079557,735.0123291,0.000198694368,735.0123291,0.0002958997502,
733.9834595,0.0003505079949,733.9834595,-0.0003509754024,733.9834595,0.0007624930004,733.9834595,0.0004749564978,
732.9897461,0.0006806351012,732.9897461,-0.0004464586964,732.9897461,0.0006972802803,732.9897461,0.0005441791145,
731.9956665,-2.013881567E-005,731.9956665,-0.0008092175703,731.9956665,0.0001218882389,731.9956665,0.0001471866708,
731.0012207,0.0003978942405,731.0012207,-0.0004835394502,731.0012207,0.0007602369878,731.0012207,0.0005008456646,
730.0064697,0.0007502535591,730.0064697,-7.744391041E-005,730.0064697,0.0009331295732,730.0064697,0.0007179191452,
729.0113525,0.0005930121406,729.0113525,-0.0003355595691,729.0113525,0.0008824425749,729.0113525,0.0006007367629,
728.0158691,0.0007019732147,728.0158691,-8.769280976E-005,728.0158691,0.001011324697,728.0158691,0.0006417470286,
726.9844971,0.0009032458183,726.9844971,0.0002301095519,726.9844971,0.001228731475,726.9844971,0.0008905873401,
725.9883423,0.0008678652812,725.9883423,-0.0001726250921,725.9883423,0.001201137551,725.9883423,0.0005708499812,
724.9918213,0.0006013070815,724.9918213,-0.0005299764453,724.9918213,0.0006038733409,724.9918213,0.0004274582025,
723.9949951,0.0008966052555,723.9949951,-0.0003119174216,723.9949951,0.0007458453183,723.9949951,0.0009279412916,
722.9978027,0.0005382956588,722.9978027,-0.000326868525,722.9978027,0.0008184826584,722.9978027,0.0006029919605,
722.0002441,0.001011324697,722.0002441,-9.742385737E-005,722.0002441,0.001263310667,722.0002441,0.0009730296442,
721.0023804,0.0006803499418,721.0023804,-0.0001026516184,721.0023804,0.0009306132561,721.0023804,0.0005639552837,
720.0041504,0.0007618966047,720.0041504,-4.731697118E-005,720.0041504,0.001160905114,720.0041504,0.0006832796498,
719.0056763,0.0003543940256,719.0056763,-0.0001385713695,719.0056763,0.0007417483139,719.0056763,0.000192815598,
718.0067139,0.0005765783135,718.0067139,-0.0001807499793,718.0067139,0.0008114284137,718.0067139,0.0005354706082,
717.0075073,0.000663394283,717.0075073,-0.0002684062929,717.0075073,0.0009519117302,717.0075073,0.0005411984748,
716.0079346,0.0007303651073,716.0079346,-0.0002597139101,716.0079346,0.0009420536226,716.0079346,0.0003805609886,
715.0079956,0.0002748924308,715.0079956,-0.0001538389479,715.0079956,0.001107492484,715.0079956,0.0007053179434,
714.0077515,0.001178243547,714.0077515,0.0001632935018,714.0077515,0.001049597282,714.0077515,0.0004477214243,
713.0072021,0.0007261126884,713.0072021,-7.552868919E-005,713.0072021,0.001057771151,713.0072021,0.0005774596357,
712.0062866,0.0006904354668,712.0062866,-0.0005139464047,712.0062866,0.0005239631864,712.0062866,0.0001789865782,
711.0050049,0.0006713534822,711.0050049,2.234016574E-005,711.0050049,0.0009126361692,711.0050049,0.0007115147891,
710.003479,0.0006030438235,710.003479,-0.0001714348182,710.003479,0.0007201490225,710.003479,0.0006564981304,
709.0014648,0.0008892644546,709.0014648,0.0001351716783,709.0014648,0.0009136478184,709.0014648,0.0009553621639,
707.9992065,0.0009068255313,707.9992065,0.0002623817709,707.9992065,0.0008874487248,707.9992065,0.0003485908965,
706.9966431,0.000901170657,706.9966431,-7.164644921E-005,706.9966431,0.0008419283549,706.9966431,0.0003218300408,
705.9936523,0.0009274224285,705.9936523,-0.0003266098502,705.9936523,0.0007118777721,705.9936523,7.038965123E-005,
704.9904175,0.001465467038,704.9904175,6.081039828E-005,704.9904175,0.001208353904,704.9904175,0.0008428620058,
703.9868164,0.0009242316592,703.9868164,-0.0003135211882,703.9868164,0.0005568274646,703.9868164,0.0004791028041,
702.9829102,0.001079854323,702.9829102,0.0004112120077,702.9829102,0.001508455258,702.9829102,0.0009068514919,
702.0145264,0.0007560101803,702.0145264,0.0002972208313,702.0145264,0.0007973203319,702.0145264,0.0002187656355,
701.0099487,0.001094698324,701.0099487,0.000184528486,701.0099487,0.0008702515624,701.0099487,0.0004601856053,
700.0050049,0.000738636707,700.0050049,9.832603973E-005,700.0050049,0.0005585899926,700.0050049,0.0001898115006,
698.9997559,0.001011921559,698.9997559,0.0002108924091,698.9997559,0.001066126861,698.9997559,0.0006680868682,
697.9941406,0.001158776809,697.9941406,0.0007252570358,697.9941406,0.001066983212,697.9941406,0.0008536775713,
696.9882813,0.000751627842,696.9882813,0.0004303861933,696.9882813,0.001268009655,696.9882813,0.0008797190385,
696.0179443,0.001431183424,696.0179443,0.0003783587599,696.0179443,0.001268399064,696.0179443,0.001136403996,
695.0114136,0.0007176598301,695.0114136,7.517935592E-005,695.0114136,0.0005389695289,695.0114136,0.0005975224776,
694.0045166,0.001237453893,694.0045166,0.0004370455572,694.0045166,0.001453701174,694.0045166,0.001200151164,
692.9973145,0.0008253813721,692.9973145,0.0004094241885,692.9973145,0.001246903324,692.9973145,0.0007609112072,
691.9898071,0.001219360274,691.9898071,0.0007025176892,691.9898071,0.001286858227,691.9898071,0.0008158113342,
691.0179443,0.001147330739,691.0179443,0.0003189545532,691.0179443,0.001145617687,691.0179443,0.0007957643247,
690.0097656,0.0006469059736,690.0097656,9.641004726E-005,690.0097656,0.0009115466964,690.0097656,0.000720797223,
689.0012817,0.0008941928972,689.0012817,0.0007271239301,689.0012817,0.0009104571654,689.0012817,0.001042331685,
687.9924316,0.0008430954767,687.9924316,0.0003856391122,687.9924316,0.0008901723195,687.9924316,0.0006445727777,
686.9833374,0.0007827719091,686.9833374,0.0003856391122,686.9833374,0.00106555596,686.9833374,0.0008772030124,
686.0098267,0.000402687554,686.0098267,0.0003853800299,686.0098267,0.000624352193,686.0098267,0.001104663708,
685.000061,0.001003670623,685.000061,0.000429660693,685.000061,0.001206458895,685.000061,0.001071083243,
683.9899292,0.001254405943,683.9899292,0.0002385529369,683.9899292,0.0007753033424,683.9899292,0.0006832536892,
683.015625,0.0005957079702,683.015625,0.0001705961477,683.015625,0.0007101924275,683.015625,0.001026892802,
682.0048828,0.001243139151,682.0048828,0.0005426239804,682.0048828,0.0008693697164,682.0048828,0.0006092651165,
680.9937744,0.0001670483907,680.9937744,-8.024576346E-006,680.9937744,0.0005797147169,680.9937744,0.0005155142862,
679.9823608,0.0006929244846,679.9823608,0.0003856909461,679.9823608,0.0009919173317,679.9823608,0.001150003984,
679.0067749,0.0009526900249,679.0067749,0.0003301456745,679.0067749,0.0007874398143,679.0067749,0.001318534021,
677.994812,0.001141231391,677.994812,0.0001888015104,677.994812,0.0006755276117,677.994812,0.001164902234,
676.9824219,0.0007539097569,676.9824219,0.0002189469233,676.9824219,0.0008656346472,676.9824219,0.001381710637,
676.0059814,0.001125269919,676.0059814,0.0006791313644,676.0059814,0.001235480886,676.0059814,0.001455727033,
674.992981,0.0003678918292,674.992981,0.000119635537,674.992981,0.0008167968481,674.992981,0.0009427021723,
674.0158691,0.0009953421541,674.0158691,2.469591527E-005,674.0158691,0.0006283962284,674.0158691,0.001022170414,
673.0022583,0.001196517143,673.0022583,0.0005164472968,673.0022583,0.0007069513667,673.0022583,0.001241010381,
671.9883423,0.001240646932,671.9883423,0.0005816587363,671.9883423,0.001029721112,671.9883423,0.001514455769,
671.010376,0.0009361647535,671.010376,0.0004589158634,671.010376,0.001091610058,671.010376,0.001243632403,
669.9958496,0.001199216698,669.9958496,0.0008105985471,669.9958496,0.001186497742,669.9958496,0.001074612373,
669.0172119,0.0009186284151,669.0172119,0.0002144664177,669.0172119,0.0009282007231,669.0172119,0.001255236682,
668.0020752,0.001348446356,668.0020752,0.0008786555263,668.0020752,0.00124098442,668.0020752,0.001819473691,
666.9865723,0.00107624731,666.9865723,0.0003128928365,666.9865723,0.001222449355,666.9865723,0.001320014009,
666.007019,0.0009972620755,666.007019,0.0005111343926,666.007019,0.0009740155656,666.007019,0.001131550642,
664.9909668,0.0005721718771,664.9909668,0.0002644021006,664.9909668,0.0009670366417,664.9909668,0.001159399631,
664.0108643,0.0008703553467,664.0108643,0.0002561913279,664.0108643,0.001256041462,664.0108643,0.00105141371,
662.9941406,0.0006262186798,662.9941406,0.0001844249055,662.9941406,0.0008788371342,662.9941406,0.0009826031746,
662.0134888,0.0007028547698,662.0134888,0.0003014949616,662.0134888,0.0008981616702,662.0134888,0.0007659419207,
660.9961548,0.001159373671,660.9961548,0.0002740117488,660.9961548,0.001054683235,660.9961548,0.0007089478313,
660.0148926,0.0009863651358,660.0148926,0.0004416060983,660.0148926,0.001090027043,660.0148926,0.0007686906611,
658.9968872,0.001068073092,658.9968872,0.0005532765645,658.9968872,0.001213156153,658.9968872,0.0008194940747,
658.0150146,0.0009666993865,658.0150146,8.750338748E-005,658.0150146,0.0008092240314,658.0150146,0.0006180788041,
656.99646,0.001084291958,656.99646,0.0007817604928,656.99646,0.001313470886,656.99646,0.000832020829,
656.0139771,0.0009290308226,656.0139771,7.339291915E-005,656.0139771,0.0006600240013,656.0139771,0.0006685794215,
654.994812,0.001069733873,654.994812,0.0007093627355,654.994812,0.001286936109,654.994812,0.000831735495,
654.0117798,0.001064154669,654.0117798,0.0005992851802,654.0117798,0.001176504418,654.0117798,0.0006771868793,
652.9920044,0.0008167968481,652.9920044,7.833800191E-005,652.9920044,0.0009634823655,652.9920044,0.0007253866643,
652.0083618,0.0007368475781,652.0083618,0.0001439498446,652.0083618,0.0008866965072,652.0083618,0.0006954653654,
650.9880371,0.0007763665635,650.9880371,0.0004812018888,650.9880371,0.001034495421,650.9880371,0.0003768301685,
650.0037842,0.001121558715,650.0037842,0.0005590306246,650.0037842,0.001102847047,650.0037842,0.0006220709765,
648.9827881,0.001344577293,648.9827881,0.0008578274865,648.9827881,0.001379321562,648.9827881,0.0006665053661,
647.9980469,0.00105138775,647.9980469,0.0001943176612,647.9980469,0.001170456759,647.9980469,0.0004742309102,
647.0128784,0.001155039179,647.0128784,0.0009040759178,647.0128784,0.001134509337,647.0128784,0.0008270412218,
645.9910278,0.001499207807,645.9910278,0.0007093108725,645.9910278,0.001372128376,645.9910278,0.0007440302288,
645.0053711,0.001269801054,645.0053711,0.001117925276,645.0053711,0.001549525303,645.0053711,0.00105559139,
643.9828491,0.001345979515,643.9828491,0.000535522413,643.9828491,0.001020691474,643.9828491,0.0006073987461,
642.9966431,0.001321857446,642.9966431,0.0005402913666,642.9966431,0.001194855897,642.9966431,0.0004597709922,
642.0101929,0.00156124169,642.0101929,0.0004207731108,642.0101929,0.001335437293,642.0101929,0.0005936342641,
640.9867554,0.00126159715,640.9867554,0.0008183270111,640.9867554,0.001430352335,640.9867554,0.001052814885,
639.9996948,0.0009038684075,639.9996948,0.0004519711365,639.9996948,0.0009992598789,639.9996948,0.0005601969897,
639.0123291,0.001144916983,639.0123291,0.0006272555911,639.0123291,0.0009513150435,639.0123291,0.0003941373434,
637.9880371,0.001600861782,637.9880371,0.0006762535777,637.9880371,0.001323623117,637.9880371,0.0007931450964,
637.000061,0.001573270303,637.000061,0.0009367354796,637.000061,0.001629416482,637.000061,0.0009737042128,
636.0118408,0.00164615002,636.0118408,0.001052036416,636.0118408,0.001665482763,636.0118408,0.001068955287,
634.9867554,0.001587377628,634.9867554,0.0007032955182,634.9867554,0.001588572748,634.9867554,0.0007651639753,
633.9979248,0.001424898393,633.9979248,0.0009591757553,633.9979248,0.001535938703,633.9979248,0.0009092639084,
633.0087891,0.001998301595,633.0087891,0.001296490547,633.0087891,0.001988783944,633.0087891,0.001471856493,
631.9828491,0.00133032212,631.9828491,0.0009394075023,631.9828491,0.001196958474,631.9828491,0.0007728138589,
630.9931641,0.001752620679,630.9931641,0.001149277319,630.9931641,0.00165703753,630.9931641,0.0008298422326,
630.0032349,0.001403472736,630.0032349,0.0008876562351,630.0032349,0.001571217901,630.0032349,0.0007993431645,
629.0130615,0.001286079409,629.0130615,0.0011914036,629.0130615,0.001606032136,629.0130615,0.0008559081471,
627.9859009,0.001967278542,627.9859009,0.00110855652,627.9859009,0.001619698829,627.9859009,0.001191247837,
626.9951172,0.001528587076,626.9951172,0.00105502049,626.9951172,0.001380178495,626.9951172,0.0008715484873,
626.0040894,0.00187110214,626.0040894,0.001173052355,626.0040894,0.001622868702,626.0040894,0.00124308723,
625.0127563,0.00175199681,625.0127563,0.001097786473,625.0127563,0.00167132949,625.0127563,0.0008624962065,
623.984436,0.001858467469,623.984436,0.001047936501,623.984436,0.00147159677,623.984436,0.0008687471855,
622.9925537,0.001837514341,622.9925537,0.001321935328,622.9925537,0.001925596851,622.9925537,0.001289532403,
622.0004272,0.001775571029,622.0004272,0.001190079725,622.0004272,0.00188563508,622.0004272,0.001239971956,
621.0079956,0.001768033369,621.0079956,0.001024920843,621.0079956,0.001777208527,621.0079956,0.0009907238418,
620.0153809,0.001787683461,620.0153809,0.0009473458631,620.0153809,0.001602394739,620.0153809,0.001061715418,
618.9855957,0.002036063001,618.9855957,0.001034495421,618.9855957,0.001797222882,618.9855957,0.0009363204008,
617.9923096,0.002309333067,617.9923096,0.001577011426,617.9923096,0.002056765603,617.9923096,0.001498142839,
616.9988403,0.002217998495,616.9988403,0.001506169327,616.9988403,0.002122573089,616.9988403,0.001438507345,
616.0050049,0.00175358227,616.0050049,0.001359248534,616.0050049,0.00201910641,616.0050049,0.001208042377,
615.0109863,0.002340953331,615.0109863,0.001710907673,615.0109863,0.002286224393,615.0109863,0.001540328958,
614.0166016,0.002050055424,614.0166016,0.001691988669,614.0166016,0.002217764268,614.0166016,0.001498090918,
612.9851685,0.002291663084,612.9851685,0.001786643756,612.9851685,0.002547648037,612.9851685,0.001470220159,
611.9903564,0.002286172239,611.9903564,0.00171997759,611.9903564,0.002164924052,611.9903564,0.001492688083,
610.9951782,0.002266317606,610.9951782,0.001655556378,610.9951782,0.002328174887,610.9951782,0.001606941572,
609.9998169,0.002529447665,609.9998169,0.001795715303,609.9998169,0.002368697897,609.9998169,0.001776558696,
609.0040283,0.002607149538,609.0040283,0.002074946184,609.0040283,0.002637827769,609.0040283,0.001872168039,
608.0081177,0.002210089006,608.0081177,0.002201320836,608.0081177,0.002673352836,608.0081177,0.002081084531,
607.0119019,0.002401259495,607.0119019,0.002071903087,607.0119019,0.002567723859,607.0119019,0.00156890566,
606.0153809,0.003214974422,606.0153809,0.002550876699,606.0153809,0.003252215683,606.0153809,0.002547101118,
604.9817505,0.00277999742,604.9817505,0.002290387871,604.9817505,0.002760015894,604.9817505,0.001855139853,
603.9847412,0.003354672343,603.9847412,0.002624077024,603.9847412,0.003459501313,603.9847412,0.002371586859,
602.9873657,0.003272115719,602.9873657,0.002473705681,602.9873657,0.003243557177,602.9873657,0.002316333586,
601.9898071,0.003350498388,601.9898071,0.002584076952,601.9898071,0.003179665655,601.9898071,0.002409484936,
600.9920044,0.003091328545,600.9920044,0.002497657435,600.9920044,0.003136172891,600.9920044,0.00218891073,
599.9939575,0.003241627244,599.9939575,0.002799693495,599.9939575,0.003352063475,599.9939575,0.002282008762,
598.9955444,0.003191869473,598.9955444,0.002857431537,598.9955444,0.00334564643,598.9955444,0.00257457234,
597.9970093,0.003406405216,597.9970093,0.002847165335,597.9970093,0.003180682659,597.9970093,0.00267403014,
596.9981079,0.003638248891,596.9981079,0.003213983495,596.9981079,0.003661664668,596.9981079,0.002974859439,
595.9989624,0.003652005922,595.9989624,0.003184046596,595.9989624,0.003642451717,595.9989624,0.002758556977,
594.9995728,0.003702625399,594.9995728,0.003510281211,594.9995728,0.003876406467,594.9995728,0.003179196501,
593.9998779,0.004000484943,593.9998779,0.003592648078,593.9998779,0.004214400891,593.9998779,0.003280774923,
592.999939,0.004033299629,592.999939,0.00368998968,592.999939,0.004185676109,592.999939,0.003034263151,
591.9997559,0.004286261275,591.9997559,0.003911588807,591.9997559,0.004346001428,591.9997559,0.003479358507,
590.9993286,0.004247336648,590.9993286,0.003766515525,590.9993286,0.004424185958,590.9993286,0.003657644382,
589.9986572,0.004276144318,589.9986572,0.003673281521,589.9986572,0.004379156511,589.9986572,0.00366949616,
588.9976807,0.004722383805,588.9976807,0.004218243528,588.9976807,0.004830213729,588.9976807,0.003648429411,
587.9963989,0.004619682673,587.9963989,0.004195529502,587.9963989,0.004888719879,587.9963989,0.003792915028,
586.9949951,0.004712701309,586.9949951,0.004683917388,586.9949951,0.00487327436,586.9949951,0.003958451096,
585.9932861,0.005049933679,585.9932861,0.004612435587,585.9932861,0.004884923808,585.9932861,0.004135862458,
584.9912109,0.005048493389,584.9912109,0.00461732829,584.9912109,0.005141813308,584.9912109,0.004067684989,
583.9890137,0.005115986802,583.9890137,0.005006331485,583.9890137,0.005442444235,583.9890137,0.004454888403,
582.9865112,0.005695598666,582.9865112,0.005294159986,582.9865112,0.005687363446,582.9865112,0.004530659877,
581.9837036,0.005772820208,581.9837036,0.005428053904,581.9837036,0.00599265052,581.9837036,0.004885342438,
581.0178223,0.005809258204,581.0178223,0.005594450515,581.0178223,0.006065067835,581.0178223,0.005181944929,
580.0145874,0.00578669738,580.0145874,0.005840767175,580.0145874,0.006100113038,580.0145874,0.004844740964,
579.0110474,0.006150205154,579.0110474,0.00612187665,579.0110474,0.006452428177,579.0110474,0.005176994018,
578.0073242,0.006118673831,578.0073242,0.005932761822,578.0073242,0.00652161194,578.0073242,0.005340883043,
577.0032349,0.006261252332,577.0032349,0.006260438357,577.0032349,0.006569728721,577.0032349,0.005408789031,
575.9989624,0.006746212021,575.9989624,0.006678438745,575.9989624,0.007125759963,575.9989624,0.005691087805,
574.9944458,0.007011097856,574.9944458,0.006970534101,574.9944458,0.007409546059,574.9944458,0.006150073837,
573.989563,0.007120550144,573.989563,0.007174154744,573.989563,0.007530213334,573.989563,0.006209808402,
572.9846191,0.007454996463,572.9846191,0.007362231147,572.9846191,0.007941186428,572.9846191,0.006433485541,
572.0165405,0.007596223149,572.0165405,0.007523655426,572.0165405,0.008071521297,572.0165405,0.006497621071,
571.0110474,0.007919938304,571.0110474,0.008130175993,571.0110474,0.008457482792,571.0110474,0.006822331809,
570.005249,0.008154916577,570.005249,0.008421956562,570.005249,0.008760101162,570.005249,0.007130601909,
568.9991455,0.008276503533,568.9991455,0.008608963341,568.9991455,0.008944083005,568.9991455,0.007496633101,
567.9928589,0.008647912182,567.9928589,0.008630192839,567.9928589,0.009192334488,567.9928589,0.007790649775,
566.9863892,0.009122353978,566.9863892,0.009137871675,566.9863892,0.009622059762,566.9863892,0.007804090623,
566.0169067,0.009429219179,566.0169067,0.009618169628,566.0169067,0.009938972071,566.0169067,0.008108390495,
565.0098267,0.009627643973,565.0098267,0.00967298355,565.0098267,0.01020682044,565.0098267,0.008395458572,
564.0025635,0.009944772348,564.0025635,0.01022576913,564.0025635,0.01061778888,564.0025635,0.008923366666,
562.9950562,0.01049565058,562.9950562,0.01075845584,562.9950562,0.01098812558,562.9950562,0.00930323638,
561.9873047,0.01053301804,561.9873047,0.01115549821,561.9873047,0.0115421107,561.9873047,0.009885555133,
561.0166016,0.01115725096,561.0166016,0.01174937561,561.0166016,0.01181480661,561.0166016,0.009931238368,
560.0083618,0.01138516515,560.0083618,0.01162675954,560.0083618,0.01194939576,560.0083618,0.009920539334,
558.9998779,0.01157010347,558.9998779,0.01219125092,558.9998779,0.01247085538,558.9998779,0.01052731555,
557.9911499,0.01197664347,557.9911499,0.0126921311,557.9911499,0.01299571525,557.9911499,0.01083963457,
556.9821167,0.01239184756,556.9821167,0.01320532989,556.9821167,0.01345656347,556.9821167,0.01128589828,
556.0102539,0.01257567015,556.0102539,0.01367588341,556.0102539,0.01382125914,556.0102539,0.01152985636,
555.0008545,0.01357136387,555.0008545,0.01423250791,555.0008545,0.01429646742,555.0008545,0.01234965958,
553.9910889,0.01364358794,553.9910889,0.01447684225,553.9910889,0.0145698823,553.9910889,0.01255187485,
553.0185547,0.01423451398,553.0185547,0.01495437603,553.0185547,0.01526978891,553.0185547,0.01315847319,
552.0084229,0.01468720008,552.0084229,0.01561336406,552.0084229,0.01571461931,552.0084229,0.01342850178,
550.9979248,0.01515250094,550.9979248,0.01604911685,550.9979248,0.01609953679,550.9979248,0.01377869211,
549.9872437,0.01575171202,549.9872437,0.01700446568,549.9872437,0.01694349758,549.9872437,0.01452742796,
549.0137939,0.01606252044,549.0137939,0.01754109003,549.0137939,0.01734203473,549.0137939,0.01484003942,
548.0026855,0.01667079143,548.0026855,0.01794468239,548.0026855,0.01791419834,548.0026855,0.01551481523,
546.9912109,0.01711678877,546.9912109,0.01832134835,546.9912109,0.01848187484,546.9912109,0.01597928628,
546.0170898,0.01776243001,546.0170898,0.01911283284,546.0170898,0.0191412624,546.0170898,0.01663025655,
545.005188,0.01838523895,545.005188,0.02001902647,545.005188,0.01990865916,545.005188,0.0172095336,
543.993103,0.0189802777,543.993103,0.02058305778,543.993103,0.02062751912,543.993103,0.01780967787,
543.0182495,0.01950800419,543.0182495,0.02131796069,543.0182495,0.02105181478,543.0182495,0.0184611585,
542.0057373,0.02013910003,542.0057373,0.02185221389,542.0057373,0.0218239855,542.0057373,0.01889772527,
540.9928589,0.02090877853,540.9928589,0.0225820709,540.9928589,0.02258935198,540.9928589,0.01961426064,
540.017395,0.02167204209,540.017395,0.02371085994,540.017395,0.02344772406,540.017395,0.02028733306,
539.0040894,0.02236003429,539.0040894,0.02460197173,539.0040894,0.02438645624,539.0040894,0.02106249332,
537.9906006,0.02325203456,537.9906006,0.02540142648,537.9906006,0.02517936938,537.9906006,0.02185082622,
537.0144653,0.02392565832,537.0144653,0.02601616643,537.0144653,0.02595721744,537.0144653,0.0224507153,
536.0004272,0.024516562,536.0004272,0.02693179995,536.0004272,0.02648799308,536.0004272,0.02300792746,
534.9862061,0.02530724369,534.9862061,0.02804454602,534.9862061,0.02768837661,534.9862061,0.02425178885,
534.0093384,0.02623818442,534.0093384,0.02897758596,534.0093384,0.02855507284,534.0093384,0.02497020178,
532.9946899,0.02731008828,532.9946899,0.02991685085,532.9946899,0.02971137874,532.9946899,0.0258926712,
532.017395,0.027881274,532.017395,0.03064228781,532.017395,0.03031509928,532.017395,0.0265737623,
531.0022583,0.02897011489,531.0022583,0.03177275509,531.0022583,0.03143989667,531.0022583,0.02761435881,
529.9868774,0.02968912013,529.9868774,0.03276085481,529.9868774,0.03220947832,529.9868774,0.02847609855,
529.0089111,0.03065673262,529.0089111,0.03374770656,529.0089111,0.03348264471,529.0089111,0.02921779081,
527.993103,0.03188275173,527.993103,0.03503780067,527.993103,0.03467074782,527.993103,0.03048014827,
527.0147095,0.03281400353,527.0147095,0.03612711653,527.0147095,0.03557578102,527.0147095,0.03138321266,
525.9984131,0.03396153823,525.9984131,0.03731264174,525.9984131,0.03675326705,525.9984131,0.03243549541,
524.9818726,0.0348764807,524.9818726,0.03885595128,524.9818726,0.0382915847,524.9818726,0.03353359178,
524.0028076,0.0360959731,524.0028076,0.03985447064,524.0028076,0.03914742917,524.0028076,0.03447716683,
522.9858398,0.03710767254,522.9858398,0.04095970467,522.9858398,0.04057838023,522.9858398,0.03571012616,
522.0063477,0.03827029839,522.0063477,0.04230387509,522.0063477,0.04178491607,522.0063477,0.03669430688,
520.9889526,0.03967126831,520.9889526,0.04391663149,520.9889526,0.04328905419,520.9889526,0.03822958842,
520.0089722,0.04074200243,520.0089722,0.04506781325,520.0089722,0.04443602264,520.0089722,0.03928688169,
518.9910889,0.04164577276,518.9910889,0.04656874761,518.9910889,0.0456440486,518.9910889,0.04013906792,
518.0107422,0.04306246713,518.0107422,0.04747939482,518.0107422,0.04668267444,518.0107422,0.04144894332,
516.9924316,0.04456995428,516.9924316,0.04953970015,516.9924316,0.04868408665,516.9924316,0.04308510572,
516.0115967,0.04576860368,516.0115967,0.050909888,516.0115967,0.05002400652,516.0115967,0.04429960996,
514.9929199,0.04727629572,514.9929199,0.05256196484,514.9929199,0.05169178173,514.9929199,0.04570348933,
514.0116577,0.04906396195,514.0116577,0.05436792597,514.0116577,0.05331101641,514.0116577,0.04728114605,
512.9924927,0.05031270534,512.9924927,0.05579148605,512.9924927,0.05490294471,512.9924927,0.04860217497,
512.0108032,0.05179822072,512.0108032,0.0577018857,512.0108032,0.05661749467,512.0108032,0.05009401217,
510.9911499,0.05359183624,510.9911499,0.059380766,510.9911499,0.05845986307,510.9911499,0.05167641491,
510.0090637,0.05473081395,510.0090637,0.06080866978,510.0090637,0.05986791849,510.0090637,0.05299034342,
508.9889526,0.05646080896,508.9889526,0.06286560744,508.9889526,0.06166955456,508.9889526,0.05455191433,
508.0065002,0.05814084038,508.0065002,0.06468326598,508.0065002,0.06344235688,508.0065002,0.05613476783,
506.9859619,0.05977706984,506.9859619,0.06656039506,506.9859619,0.0653758347,506.9859619,0.05790843815,
506.0030518,0.06176838279,506.0030518,0.06863427162,506.0030518,0.06728694588,506.0030518,0.05953987315,
504.9821167,0.06346341968,504.9821167,0.07087480277,504.9821167,0.06939281523,504.9821167,0.06160422042,
503.9986877,0.06544468552,503.9986877,0.07285495102,503.9986877,0.07132855803,503.9986877,0.0634733662,
503.0151672,0.06709720939,503.0151672,0.07471034676,503.0151672,0.07315461338,503.0151672,0.06496921927,
501.9936218,0.06927092373,501.9936218,0.07731641084,501.9936218,0.07560992241,501.9936218,0.06717793643,
501.009613,0.07120450586,501.009613,0.07942090929,501.009613,0.07771695405,501.009613,0.0691280961,
499.9876099,0.07341134548,499.9876099,0.08176512271,499.9876099,0.08016424626,499.9876099,0.07124201953,
499.0032043,0.0754385069,499.0032043,0.08434439451,499.0032043,0.08246161044,499.0032043,0.07336684316,
498.0186157,0.07796658576,498.0186157,0.08671176434,498.0186157,0.08491965383,498.0186157,0.07561518997,
496.9960022,0.07971789688,496.9960022,0.08897396922,496.9960022,0.08707472682,496.9960022,0.07754198462,
496.0109253,0.08166775852,496.0109253,0.09109570086,496.0109253,0.08917118609,496.0109253,0.07926557213,
494.9878235,0.08398336172,494.9878235,0.09361508489,494.9878235,0.091676943,494.9878235,0.08164867014,
494.0023499,0.08641637862,494.0023499,0.09650728106,494.0023499,0.09453574568,494.0023499,0.08400641382,
493.0168152,0.08844694495,493.0168152,0.0988554135,493.0168152,0.09649897367,493.0168152,0.08597741276,
491.9930725,0.09099645168,491.9930725,0.1015663669,491.9930725,0.09931215644,491.9930725,0.08843965083,
491.007019,0.09292883426,491.007019,0.1038273051,491.007019,0.1015496179,491.007019,0.09038666636,
489.9829102,0.09561060369,489.9829102,0.1066788584,489.9829102,0.1044245288,489.9829102,0.09283364564,
488.9964294,0.09812608361,488.9964294,0.1096364185,488.9964294,0.1069303751,488.9964294,0.09530945122,
488.0098267,0.1005027518,488.0098267,0.1125283763,488.0098267,0.1097276881,488.0098267,0.09791006148,
486.9850159,0.1033001766,486.9850159,0.1152316928,486.9850159,0.112951383,486.9850159,0.1003146395,
485.9979553,0.1059037372,485.9979553,0.1182780191,485.9979553,0.1156342998,485.9979553,0.103147082,
485.0107117,0.1087860987,485.0107117,0.1215288565,485.0107117,0.1188538745,485.0107117,0.1058471501,
483.9853516,0.1109745577,483.9853516,0.1239541844,483.9853516,0.1211908907,483.9853516,0.1080520898,
482.9976501,0.1137941554,482.9976501,0.1269696653,482.9976501,0.1242681518,482.9976501,0.1106783375,
482.0098877,0.1166614369,482.0098877,0.1304805875,482.0098877,0.1273315251,482.0098877,0.1135405153,
480.9838257,0.1194405779,480.9838257,0.1334679425,480.9838257,0.130480051,480.9838257,0.1162443757,
479.9956055,0.1224544868,479.9956055,0.1368827373,479.9956055,0.1336325407,479.9956055,0.1193215549,
479.0071716,0.125132516,479.0071716,0.1399788707,479.0071716,0.1366859525,479.0071716,0.1219458878,
478.0185547,0.1283559501,478.0185547,0.1434360147,478.0185547,0.1399205923,478.0185547,0.1248835176,
476.9916382,0.1315249503,476.9916382,0.1469836384,476.9916382,0.1436470151,476.9916382,0.1282407045,
476.0026855,0.1346271187,476.0026855,0.1504597962,476.0026855,0.1469926089,476.0026855,0.1310958266,
475.0134277,0.1377076507,475.0134277,0.1540697515,475.0134277,0.1503444463,475.0134277,0.1342837811,
473.9859619,0.1410236806,473.9859619,0.1577912569,473.9859619,0.1539129168,473.9859619,0.1374434233,
472.9963989,0.1440443248,472.9963989,0.161095202,472.9963989,0.1571864784,472.9963989,0.1402078271,
472.0065308,0.1472418159,472.0065308,0.164516151,472.0065308,0.1609252393,472.0065308,0.1436020434,
471.0165405,0.150737524,471.0165405,0.168309629,471.0165405,0.1643389761,471.0165405,0.1466456652,
469.9882507,0.1540947109,469.9882507,0.1721900403,469.9882507,0.1681220531,469.9882507,0.1502871066,
468.9979248,0.1571926177,468.9979248,0.1759575009,468.9979248,0.1714950055,468.9979248,0.1533194929,
468.0073242,0.1604235917,468.0073242,0.1795418561,468.0073242,0.1751124561,468.0073242,0.1563842893,
467.016571,0.1637335569,467.016571,0.1829669774,467.016571,0.1786348373,467.016571,0.1596388817,
465.9875183,0.1670393348,465.9875183,0.1869769543,465.9875183,0.1824097633,465.9875183,0.1630737633,
464.9963379,0.1704754978,464.9963379,0.1909307688,464.9963379,0.1860850751,464.9963379,0.1663765311,
464.0050354,0.173714444,464.0050354,0.1944082081,464.0050354,0.1895876229,464.0050354,0.1695260257,
463.0134583,0.1775417477,463.0134583,0.1989171356,463.0134583,0.1938826144,463.0134583,0.1733466983,
461.9835815,0.1810656935,461.9835815,0.2025278807,461.9835815,0.1974615604,461.9835815,0.1764990687,
460.9916382,0.1843890101,460.9916382,0.2065224499,460.9916382,0.2012154162,460.9916382,0.1798058897,
459.9995728,0.1879520714,459.9995728,0.2103898823,459.9995728,0.2050253153,459.9995728,0.1834097356,
459.0072327,0.1909806281,459.0072327,0.2137340009,459.0072327,0.2083099633,459.0072327,0.1862348169,
458.0147705,0.1950394809,458.0147705,0.2181710601,458.0147705,0.2127788365,458.0147705,0.1902596951,
456.9839172,0.1985181719,456.9839172,0.2222602516,456.9839172,0.2166778594,456.9839172,0.1937172264,
455.9910889,0.2020057142,455.9910889,0.2262086421,455.9910889,0.2202718705,455.9910889,0.1967936158,
454.9979858,0.2058158964,454.9979858,0.2301233411,454.9979858,0.2243902236,454.9979858,0.2006836087,
454.0047913,0.2090198845,454.0047913,0.2342136651,454.0047913,0.2279895991,454.0047913,0.2041927576,
453.0114136,0.2127540261,453.0114136,0.238494873,453.0114136,0.2320597768,453.0114136,0.2077325732,
452.0177917,0.2164717764,452.0177917,0.2422594726,452.0177917,0.2359789163,452.0177917,0.2111362815,
450.9857788,0.220000878,450.9857788,0.2463523597,450.9857788,0.2399413437,450.9857788,0.2146363705,
449.9918213,0.2234426886,449.9918213,0.2503194511,449.9918213,0.2436693013,449.9918213,0.2180620432,
448.9976501,0.2274338007,448.9976501,0.2544442713,448.9976501,0.2478475124,448.9976501,0.2218818665,
448.0032959,0.2308508605,448.0032959,0.2585693896,448.0032959,0.2516249716,448.0032959,0.225314334,
447.0087585,0.2345319986,447.0087585,0.2626250386,447.0087585,0.2555652559,447.0087585,0.2288331538,
446.0140381,0.2379143536,446.0140381,0.2662950158,446.0140381,0.2593615949,446.0140381,0.2320589423,
444.9808655,0.2413294911,444.9808655,0.2701582909,444.9808655,0.2630823255,444.9808655,0.2355307788,
443.9857788,0.2447370738,443.9857788,0.2739611864,443.9857788,0.26664114,443.9857788,0.2389113009,
442.9905701,0.2483663857,442.9905701,0.2783561647,442.9905701,0.2709241807,442.9905701,0.2425729483,
441.9951477,0.251571238,441.9951477,0.2820442319,441.9951477,0.2744425535,441.9951477,0.2456631809,
440.9995117,0.2547419965,440.9995117,0.2856002152,440.9995117,0.2780712545,440.9995117,0.2488391846,
440.0036926,0.2580219507,440.0036926,0.2890171409,440.0036926,0.2814308107,440.0036926,0.2519531548,
439.0077515,0.2612441182,439.0077515,0.292642504,439.0077515,0.2846969664,439.0077515,0.2549722493,
438.0115662,0.2648128271,438.0115662,0.2965594828,438.0115662,0.2887117267,438.0115662,0.2585387826,
437.0152283,0.2677420974,437.0152283,0.2998749912,437.0152283,0.2916778028,437.0152283,0.2612295747,
436.0187378,0.2710543275,436.0187378,0.3036767244,436.0187378,0.2952329218,436.0187378,0.2646416426,
434.9837036,0.2738381326,434.9837036,0.3066592216,434.9837036,0.2983877957,434.9837036,0.2671759129,
433.9868469,0.2768495381,433.9868469,0.3102445602,433.9868469,0.3017104268,433.9868469,0.2703169286,
432.9897461,0.2799228132,432.9897461,0.3133424819,432.9897461,0.3049069643,432.9897461,0.2730256617,
431.9925232,0.2826843858,431.9925232,0.3167364597,431.9925232,0.3081014752,431.9925232,0.2761224806,
430.9951477,0.2857177258,430.9951477,0.3199699819,430.9951477,0.3112281263,430.9951477,0.2787238359,
429.9975586,0.2883162498,429.9975586,0.3232577145,429.9975586,0.3140106201,429.9975586,0.2814824283,
428.9997559,0.2907493412,428.9997559,0.3259113133,428.9997559,0.3168231249,428.9997559,0.2839559019,
428.0018921,0.2933153212,428.0018921,0.3288996816,428.0018921,0.3196913302,428.0018921,0.2863636017,
427.0037537,0.2960377038,427.0037537,0.3319323957,427.0037537,0.3227050304,427.0037537,0.2892899811,
426.0054626,0.2985005081,426.0054626,0.3347276747,426.0054626,0.3255364597,426.0054626,0.2916844487,
425.0070496,0.3007388115,425.0070496,0.3369943798,425.0070496,0.3274219036,425.0070496,0.2935376465,
424.0084229,0.3031083643,424.0084229,0.3396907151,424.0084229,0.3303404152,424.0084229,0.295984,
423.0095825,0.3052938879,423.0095825,0.3421036899,423.0095825,0.3325380385,423.0095825,0.2981248796,
422.0106506,0.3071159422,422.0106506,0.3443734646,422.0106506,0.3346094787,422.0106506,0.2998940647,
421.0115051,0.3091653287,421.0115051,0.3465108573,421.0115051,0.3368343711,421.0115051,0.3019296825,
420.0121765,0.3108403087,420.0121765,0.3484227061,420.0121765,0.3388359845,420.0121765,0.303556174,
419.0126648,0.3127471507,419.0126648,0.3504391015,419.0126648,0.3407249451,419.0126648,0.305238992,
418.013031,0.3140569627,418.013031,0.3519053161,418.013031,0.3420672417,418.013031,0.3066520989,
417.0132446,0.31584692,417.0132446,0.3537252843,417.0132446,0.3436709344,417.0132446,0.3082826734,
416.0131836,0.3172903657,416.0131836,0.3555149436,416.0131836,0.3454557061,416.0131836,0.3096532524,
415.013031,0.318362534,415.013031,0.357159555,415.013031,0.3467205465,415.013031,0.3109002411,
414.0127258,0.319349587,414.0127258,0.3581047356,414.0127258,0.3477554917,414.0127258,0.3115787804,
413.0122375,0.3206664622,413.0122375,0.3591805696,413.0122375,0.3487299681,413.0122375,0.3130301237,
412.0115051,0.3210081756,412.0115051,0.359773308,412.0115051,0.3495362699,412.0115051,0.3135287762,
411.0106812,0.3219384551,411.0106812,0.3607206345,411.0106812,0.3501712978,411.0106812,0.3142861724,
410.0097046,0.3225777447,410.0097046,0.3615942597,410.0097046,0.3511819243,410.0097046,0.3148272634,
409.0085449,0.3230121732,409.0085449,0.3619078398,409.0085449,0.3515835702,409.0085449,0.3151187301,
408.0071716,0.3232621849,408.0071716,0.3626277149,408.0071716,0.3519670963,408.0071716,0.3159759939,
407.0056763,0.323802948,407.0056763,0.3629433811,407.0056763,0.3522547781,407.0056763,0.3160069287,
406.0040283,0.3235072494,406.0040283,0.3627799749,406.0040283,0.3522258997,406.0040283,0.3161258698,
405.0021362,0.3237028718,405.0021362,0.3627854884,405.0021362,0.3523031175,405.0021362,0.3161585629,
404.0001526,0.3238880336,404.0001526,0.3628079295,404.0001526,0.3524866998,404.0001526,0.3161120713,
402.9979858,0.3233901262,402.9979858,0.3624768257,402.9979858,0.3518945277,402.9979858,0.3158251047,
401.9956665,0.3230845928,401.9956665,0.361841619,401.9956665,0.3512067497,401.9956665,0.3154060245,
400.9931641,0.3228254318,400.9931641,0.3615113497,400.9931641,0.3510811031,400.9931641,0.3151026368,
399.9904785,0.3219567239,399.9904785,0.360609591,399.9904785,0.3500216603,399.9904785,0.3144929409,
398.9876709,0.3212454617,398.9876709,0.3597199023,398.9876709,0.3491536975,398.9876709,0.3138171136,
397.9846802,0.3207260966,397.9846802,0.3590033054,397.9846802,0.3487041295,397.9846802,0.313100785,
396.9815369,0.3196216524,396.9815369,0.3579286039,396.9815369,0.3474811018,396.9815369,0.3122128546,
396.0168152,0.3188146353,396.0168152,0.3569344282,396.0168152,0.3466084599,396.0168152,0.3114736974,
395.0133362,0.3176251054,395.0133362,0.3555452526,395.0133362,0.3452014029,395.0133362,0.3105302155,
394.0097046,0.3167292774,394.0097046,0.3543001711,394.0097046,0.34406811,394.0097046,0.3094842434,
393.0059509,0.3156161904,393.0059509,0.3527108729,393.0059509,0.3426347971,393.0059509,0.3082365394,
392.0019836,0.3145899773,392.0019836,0.3514224887,392.0019836,0.3412757814,392.0019836,0.3071662486,
390.9978943,0.3138085604,390.9978943,0.350263834,390.9978943,0.3402834237,390.9978943,0.3063270748,
389.9936218,0.3128845692,389.9936218,0.3491052389,389.9936218,0.3389575481,389.9936218,0.3055834174,
388.9891968,0.312119633,388.9891968,0.3478170931,388.9891968,0.3381349444,388.9891968,0.3049331307,
387.9845886,0.3110479414,387.9845886,0.3466321528,387.9845886,0.336943537,387.9845886,0.3042593896,
387.0185242,0.3104270101,387.0185242,0.3457709849,387.0185242,0.3359566033,387.0185242,0.3037480414,
386.0136414,0.3101611435,386.0136414,0.3446299434,386.0136414,0.3350370228,386.0136414,0.3032231331,
385.0085754,0.310171783,385.0085754,0.3441305459,385.0085754,0.3345745802,385.0085754,0.3032378554,
384.0033875,0.3102945983,384.0033875,0.3438364863,384.0033875,0.3344796896,384.0033875,0.3035279512,
382.9980164,0.3108150065,382.9980164,0.3438905478,382.9980164,0.3344117105,382.9980164,0.3041233122,
381.9925232,0.310951829,381.9925232,0.3432220817,381.9925232,0.3343019187,381.9925232,0.304507792,
380.9868469,0.3119225204,380.9868469,0.3436245322,380.9868469,0.3346944749,380.9868469,0.3056369424,
379.9809875,0.3138269186,379.9809875,0.3450103998,379.9809875,0.3360186815,379.9809875,0.3078119457,
379.0137024,0.3166421056,379.0137024,0.3471782207,379.0137024,0.3381677866,379.0137024,0.310480237,
378.0075684,0.3197667897,378.0075684,0.3493759036,378.0075684,0.3406867087,378.0075684,0.3137388825,
377.0012512,0.3229417503,377.0012512,0.3519230187,377.0012512,0.3434122205,377.0012512,0.3172676265,
375.994812,0.3273673356,375.994812,0.3553150594,375.994812,0.3468593657,375.994812,0.3215956986,
374.9882202,0.331826359,374.9882202,0.3590021133,374.9882202,0.3506656289,374.9882202,0.3265721202,
373.9815063,0.3379177749,373.9815063,0.3641522527,373.9815063,0.3560695648,373.9815063,0.3327962756,
373.0133362,0.3445143998,373.0133362,0.3694677651,373.0133362,0.3615081608,373.0133362,0.3390341401,
372.0062866,0.3529873192,372.0062866,0.3766526282,372.0062866,0.3689250648,372.0062866,0.3479306102,
370.9990845,0.3611500263,370.9990845,0.3839400411,370.9990845,0.3762916327,370.9990845,0.3558374941,
369.9917297,0.3704588413,369.9917297,0.3923284411,369.9917297,0.3850822151,369.9917297,0.3658201694,
368.9842529,0.3824942708,368.9842529,0.4024589062,368.9842529,0.3956837654,368.9842529,0.3779794872,
368.0153503,0.3945109546,368.0153503,0.4130272269,368.0153503,0.4066647589,368.0153503,0.390208751,
367.0075378,0.4083874822,367.0075378,0.4257069528,367.0075378,0.4192245007,367.0075378,0.4039458334,
365.9996033,0.4221839309,365.9996033,0.4375772774,365.9996033,0.4315978885,365.9996033,0.4179081917,
364.9914856,0.4384779334,364.9914856,0.4521363676,364.9914856,0.4462124407,364.9914856,0.4340715706,
363.9832458,0.4567229748,363.9832458,0.4694047272,363.9832458,0.4631025195,363.9832458,0.453026861,
363.0136414,0.4752022922,363.0136414,0.4861140549,363.0136414,0.479634136,363.0136414,0.4715049565,
362.005127,0.4951061904,362.005127,0.5030294657,362.005127,0.4980533123,362.005127,0.4910296798,
360.9964294,0.5122613907,360.9964294,0.5184584856,360.9964294,0.5134113431,360.9964294,0.5080379248,
359.9876404,0.5331986547,359.9876404,0.5379725099,359.9876404,0.5337408781,359.9876404,0.529908061,
359.0174561,0.5574344993,359.0174561,0.5598275065,359.0174561,0.5547018051,359.0174561,0.5535343289,
358.0083618,0.5829356313,358.0083618,0.5829672813,358.0083618,0.5784805417,358.0083618,0.5787501335,
356.999054,0.6046646833,356.999054,0.6022533178,356.999054,0.5985553861,356.999054,0.6008148789,
355.9896851,0.629567802,355.9896851,0.6255720258,355.9896851,0.6214932203,355.9896851,0.6245080233,
355.0189514,0.6562101841,355.0189514,0.6498367786,355.0189514,0.6458016038,355.0189514,0.6517024636,
354.0092468,0.687158525,354.0092468,0.6783159375,354.0092468,0.6729185581,354.0092468,0.6821857095,
352.9994202,0.7172843814,352.9994202,0.7055742145,352.9994202,0.7005803585,352.9994202,0.7114002109,
351.9894409,0.7503092885,351.9894409,0.7347642183,351.9894409,0.7304852605,351.9894409,0.7429596782,
351.0181885,0.7801992297,351.0181885,0.7631926537,351.0181885,0.7574802637,351.0181885,0.7718465328,
350.0079346,0.8136546016,350.0079346,0.7941561937,350.0079346,0.7884902358,350.0079346,0.8044015765,
348.9975281,0.8512337208,348.9975281,0.82693398,348.9975281,0.8217816949,348.9975281,0.8409408927,
347.9869995,0.8904613256,347.9869995,0.8636368513,347.9869995,0.8573971987,347.9869995,0.8769367933,
347.0151672,0.9314439297,347.0151672,0.9011207819,347.0151672,0.8935191035,347.0151672,0.9166983366,
346.0043335,0.9698963165,346.0043335,0.9355245233,346.0043335,0.9271826744,346.0043335,0.9514831901,
344.9933777,1.014218211,344.9933777,0.9755596519,344.9933777,0.9666653872,344.9933777,0.9926422238,
343.9822693,1.059581399,343.9822693,1.016419649,343.9822693,1.005412579,343.9822693,1.034974217,
343.0099182,1.106966972,343.0099182,1.061220884,343.0099182,1.048948407,343.0099182,1.080001712,
341.9985352,1.159787774,341.9985352,1.108564854,341.9985352,1.09526813,341.9985352,1.128706694,
340.9870605,1.208147883,340.9870605,1.153192878,340.9870605,1.138271332,340.9870605,1.173113585,
340.0142822,1.262990475,340.0142822,1.203773975,340.0142822,1.18747437,340.0142822,1.222836494,
339.0025024,1.326267242,339.0025024,1.260879397,339.0025024,1.240709901,339.0025024,1.27877748,
337.9905701,1.393319011,337.9905701,1.32032609,337.9905701,1.297554016,337.9905701,1.339784503,
337.0174561,1.457425117,337.0174561,1.377303362,337.0174561,1.354109645,337.0174561,1.397690892,
336.005249,1.52205205,336.005249,1.436155558,336.005249,1.408687592,336.005249,1.453074217,
334.9929199,1.590973139,334.9929199,1.500358343,334.9929199,1.470035553,334.9929199,1.517704487,
334.0193787,1.672493696,334.0193787,1.572388768,334.0193787,1.540647268,334.0193787,1.588833809,
333.0067749,1.751152039,333.0067749,1.643222332,333.0067749,1.606185913,333.0067749,1.657541037,
331.9940186,1.823455453,331.9940186,1.715375543,331.9940186,1.675799966,331.9940186,1.728482842,
330.9811707,1.898612618,330.9811707,1.781375289,330.9811707,1.741529703,330.9811707,1.797167301,
330.0071411,1.986655235,330.0071411,1.862691879,330.0071411,1.814101577,330.0071411,1.877253175,
328.9939575,2.078034639,328.9939575,1.954368472,328.9939575,1.893655539,328.9939575,1.948910952,
327.9807434,2.171821356,327.9807434,2.036138535,327.9807434,1.979506731,327.9807434,2.027777672,
327.0062866,2.281749725,327.0062866,2.117858171,327.0062866,2.06292367,327.0062866,2.133964777,
325.9927368,2.370596647,325.9927368,2.216058493,325.9927368,2.139386415,325.9927368,2.197529316,
325.0180664,2.458795786,325.0180664,2.302489519,325.0180664,2.2370224,325.0180664,2.287841558,
324.004303,2.544401646,324.004303,2.392178535,324.004303,2.31832242,324.004303,2.383772373,
322.9903564,2.646407843,322.9903564,2.499414682,322.9903564,2.398328543,322.9903564,2.480703354,
322.0152893,2.685309172,322.0152893,2.543045759,322.0152893,2.482571602,322.0152893,2.569737196,
321.0011292,2.840224504,321.0011292,2.608690262,321.0011292,2.587697029,321.0011292,2.703951359,
319.9867859,3.059720039,319.9867859,2.75184679,319.9867859,2.667027235,319.9867859,2.758586407,
319.0113525,3.031262636,319.0113525,2.853055716,319.0113525,2.737756252,319.0113525,2.801916838,
317.9967957,3.125917912,317.9967957,2.911230087,317.9967957,2.780232906,317.9967957,2.897553205,
316.9820862,3.214274645,316.9820862,2.934613705,316.9820862,2.984815121,316.9820862,3.100425243,
316.0063171,3.28834343,316.0063171,3.122457266,316.0063171,3.127048254,316.0063171,3.093273401,
314.9913635,3.250512362,314.9913635,3.1714046,314.9913635,3.172171831,314.9913635,3.163530588,
314.0152893,3.375737906,314.0152893,3.176823854,314.0152893,3.239102364,314.0152893,3.29964757,
313.0001221,3.381145477,313.0001221,3.446348667,313.0001221,3.273005962,313.0001221,3.222323418,
311.9847717,3.644872904,311.9847717,3.33793354,311.9847717,3.2922194,311.9847717,3.481011152,
311.0083923,3.26718688,311.0083923,3.473876238,311.0083923,3.36180234,311.0083923,3.561785221,
309.9928284,3.366446018,309.9928284,3.496079206,309.9928284,3.544760942,309.9928284,3.55112505,
309.0161743,3.41542387,309.0161743,3.477847338,309.0161743,3.511859655,309.0161743,3.557627678,
308.0003357,3.575630426,308.0003357,3.377770424,308.0003357,3.406533241,308.0003357,3.705143452,
306.9844055,3.661567688,306.9844055,3.415344477,306.9844055,3.567411184,306.9844055,3.673055172,
306.0073853,3.482266665,306.0073853,3.523976088,306.0073853,3.545790195,306.0073853,3.534425974,
304.9912109,3.593604803,304.9912109,3.45685029,304.9912109,3.823126554,304.9912109,3.431340218,
304.0139465,3.562353373,304.0139465,3.390516758,304.0139465,3.522862196,304.0139465,3.644284248,
302.9974976,3.645524979,302.9974976,3.757448673,302.9974976,3.648109913,302.9974976,3.622858763,
301.980957,3.653719902,301.980957,3.611412048,301.980957,3.634527683,301.980957,3.656188011,
301.0033875,3.712999105,301.0033875,3.621786594,301.0033875,3.733901978,301.0033875,3.737770081,
299.9865723,3.680010557,299.9865723,3.615986347,299.9865723,3.641010284,299.9865723,3.795998573,
299.008728,3.838423729,299.008728,3.651067734,299.008728,3.718940973,299.008728,3.687501669,
297.9916992,3.612443209,297.9916992,3.791706085,297.9916992,3.725585938,297.9916992,3.708088398,
297.0136719,3.697144508,297.0136719,3.573539734,297.0136719,3.635246754,297.0136719,3.729524851,
295.9963684,3.813020706,295.9963684,3.777636051,295.9963684,3.613758564,295.9963684,3.83958292,
295.0180969,3.772692442,295.0180969,3.936454773,295.0180969,3.72045517,295.0180969,3.80258441,
294.0005798,3.633874893,294.0005798,3.730556011,294.0005798,3.71091342,294.0005798,3.881228924,
292.9829407,3.583054066,292.9829407,3.83359623,292.9829407,3.812394142,292.9829407,4.247616768,
292.0043335,3.765686989,292.0043335,3.673196316,292.0043335,3.831093788,292.0043335,3.79223156,
290.9864502,3.522660732,290.9864502,3.690626621,290.9864502,3.572919369,290.9864502,3.641157389,
290.0076294,3.76127696,290.0076294,3.859741688,290.0076294,3.777755499,290.0076294,3.831555128,
288.9895325,3.571768761,288.9895325,3.64952898,288.9895325,3.705850601,288.9895325,3.727006912,
288.0104675,3.57685113,288.0104675,3.768716335,288.0104675,3.94780755,288.0104675,3.780483484,
286.9921265,3.646101475,286.9921265,3.580157995,286.9921265,3.829919815,286.9921265,3.742147207,
286.0128174,3.715180635,286.0128174,3.667654037,286.0128174,3.750896454,286.0128174,3.766113997,
284.9942627,3.634378672,284.9942627,3.657167435,284.9942627,3.600761652,284.9942627,3.487009764,
284.014801,3.637273788,284.014801,3.63899374,284.014801,3.72254777,284.014801,3.915108919,
282.9959717,3.632794857,282.9959717,3.690409422,282.9959717,3.952895641,282.9959717,4.018439293,
282.0162659,3.55132246,282.0162659,3.547311544,282.0162659,3.838935375,282.0162659,3.543920279,
280.9972229,3.66334343,280.9972229,3.715398312,280.9972229,3.747342587,280.9972229,4.013132095,
280.017334,3.616980314,280.017334,3.527666092,280.017334,3.67315197,280.017334,3.570973158,
278.9980774,3.578478098,278.9980774,3.677770615,278.9980774,3.625217915,278.9980774,3.795742035,
278.0178833,3.667725563,278.0178833,3.694592476,278.0178833,3.604566813,278.0178833,3.85516715,
276.9984436,3.697952271,276.9984436,3.821619511,276.9984436,3.804114819,276.9984436,3.900792599,
276.0180969,3.702940226,276.0180969,3.48253727,276.0180969,3.608991861,276.0180969,3.633831263,
274.9984131,3.60888648,274.9984131,3.575082302,274.9984131,3.620829344,274.9984131,3.724642992,
274.0177917,3.874269724,274.0177917,3.8393507,274.0177917,3.852621317,274.0177917,4.047700405,
272.9978943,3.91349864,272.9978943,3.582564116,272.9978943,4.135141373,272.9978943,3.805131912,
272.0171509,3.651328564,272.0171509,3.616876602,272.0171509,3.744624853,272.0171509,3.644497395,
270.9970093,3.835697651,270.9970093,3.75058651,270.9970093,3.653445721,270.9970093,3.79329133,
270.0160217,3.912638187,270.0160217,3.752025843,270.0160217,3.781133413,270.0160217,3.665614843,
268.9956665,3.517256975,268.9956665,3.591676712,268.9956665,3.817912817,268.9956665,3.723494053,
268.0144653,3.659115553,268.0144653,3.747087479,268.0144653,3.672851086,268.0144653,3.739900827,
266.9938965,3.617651701,266.9938965,3.601957321,266.9938965,3.615530968,266.9938965,3.993198395,
266.0125122,3.619398355,266.0125122,3.655286074,266.0125122,3.5955832,266.0125122,3.648027897,
264.9917297,3.912889719,264.9917297,3.568267584,264.9917297,3.759681463,264.9917297,3.575728416,
264.0101318,3.854109049,264.0101318,3.433815956,264.0101318,3.543988705,264.0101318,3.814530373,
262.9891663,3.406210184,262.9891663,3.783298492,262.9891663,4.027898312,262.9891663,3.837239265,
262.0073242,3.593504667,262.0073242,3.644524813,262.0073242,3.963592291,262.0073242,3.601409435,
260.9861145,3.724620819,260.9861145,3.816752434,260.9861145,3.896103144,260.9861145,3.845305443,
260.0041199,3.602724075,260.0041199,3.697331429,260.0041199,3.651242495,260.0041199,3.669035673,
258.9827576,3.632694006,258.9827576,3.625084877,258.9827576,3.826931238,258.9827576,3.849551678,
258.0005188,3.681241989,258.0005188,3.563845873,258.0005188,3.706587553,258.0005188,3.927706242,
257.018219,4.012554646,257.018219,3.66280365,257.018219,3.56086278,257.018219,3.989485502,
255.996521,3.513897181,255.996521,3.526923895,255.996521,3.771944761,255.996521,3.853146315,
255.0139771,3.620177984,255.0139771,3.547936678,255.0139771,4.044865131,255.0139771,3.726821661,
253.9920807,3.821099281,253.9920807,3.911887169,253.9920807,3.652036428,253.9920807,4.390789986,
253.0093994,3.681582212,253.0093994,3.609233856,253.0093994,3.650597572,253.0093994,3.807049274,
251.9872589,3.804427385,251.9872589,3.826807737,251.9872589,4.363873005,251.9872589,3.717932701,
251.0043488,3.694458008,251.0043488,3.631613255,251.0043488,3.663901806,251.0043488,3.826588392,
249.9820251,3.619441748,249.9820251,3.852202654,249.9820251,3.988697767,249.9820251,4.33317852,
248.9989624,3.749947786,248.9989624,3.803966522,248.9989624,3.892203331,248.9989624,3.952987194,
248.0157471,3.669646025,248.0157471,3.596952677,248.0157471,3.711173296,248.0157471,3.737368107,
246.9931488,3.765466452,246.9931488,3.764816284,246.9931488,3.862812281,246.9931488,3.797515869,
246.0097809,3.589652777,246.0097809,3.578861713,246.0097809,3.830835819,246.0097809,3.906607151,
244.986969,3.675380707,244.986969,3.772653103,244.986969,3.687757969,244.986969,3.740950584,
244.0034027,3.748174429,244.0034027,3.843684435,244.0034027,3.828559399,244.0034027,4.007867813,
242.9804077,3.643216848,242.9804077,3.720914364,242.9804077,3.748303413,242.9804077,3.841458321,
241.9966736,3.799124002,241.9966736,3.548618078,241.9966736,3.62074995,241.9966736,3.757923841,
241.0128021,3.650196791,241.0128021,3.761698484,241.0128021,4.015474796,241.0128021,4.174407005,
239.989502,3.412318468,239.989502,3.628891706,239.989502,3.654845715,239.989502,3.759697437,
239.0054932,3.460518599,239.0054932,3.449186087,239.0054932,3.498848915,239.0054932,3.79302907,
237.9820251,3.456560373,237.9820251,3.480331421,237.9820251,3.698935747,237.9820251,3.594920397,
236.9978027,3.41185832,236.9978027,3.490346909,236.9978027,3.610084534,236.9978027,3.612701416,
236.013504,3.448598862,236.013504,3.433102369,236.013504,3.428802967,236.013504,3.516748905,
234.9897461,3.54663372,234.9897461,3.4667871,234.9897461,3.58022213,234.9897461,3.633937359,
234.005249,3.481330872,234.005249,4.272370338,234.005249,4.059180737,234.005249,3.730340004,
232.9812927,3.454977274,232.9812927,3.597543955,232.9812927,3.688233614,232.9812927,3.448989153,
231.9966583,3.535502672,231.9966583,3.597140074,231.9966583,3.602863073,231.9966583,3.674695253,
231.0119019,3.608228445,231.0119019,3.560135365,231.0119019,3.529927254,231.0119019,3.607187986,
229.9876556,3.613405466,229.9876556,3.653337479,229.9876556,3.677064896,229.9876556,4.151198864,
229.0027313,3.55547452,229.0027313,3.559219122,229.0027313,3.634123564,229.0027313,3.69026804,
228.0177002,3.538077116,228.0177002,3.688788891,228.0177002,3.632829666,228.0177002,3.625264406,
226.9931946,3.544336319,226.9931946,3.567531586,226.9931946,3.60864687,226.9931946,3.568335772,
226.0080261,3.4968009,226.0080261,3.575763464,226.0080261,3.680227041,226.0080261,3.581429005,
224.9833527,3.445480108,224.9833527,3.453154087,224.9833527,3.534377098,224.9833527,3.544221163,
223.9979706,3.468575954,223.9979706,3.466070652,223.9979706,3.621204138,223.9979706,3.507701874,
223.012558,3.46574235,223.012558,3.387272358,223.012558,3.462182045,223.012558,3.523420811,
221.9875946,3.447613955,221.9875946,3.453648567,221.9875946,3.468811035,221.9875946,3.527798653,
221.0019836,3.419467449,221.0019836,3.48634553,221.0019836,3.504894495,221.0019836,3.470665216,
220.0162659,3.443473577,220.0162659,3.489243746,220.0162659,3.412218094,220.0162659,3.565347672,
218.9910583,3.350823164,218.9910583,3.485909224,218.9910583,3.406144619,218.9910583,3.473329544,
218.005188,3.352391243,218.005188,3.336498499,218.005188,3.411004782,218.005188,3.61250639,
217.0192108,3.36270237,217.0192108,3.365748644,217.0192108,3.391950607,217.0192108,3.428124905,
215.9937592,3.280263901,215.9937592,3.567638636,215.9937592,3.365672588,215.9937592,3.340278149,
215.0076294,3.306306362,215.0076294,3.266668558,215.0076294,3.275264502,215.0076294,3.296461344,
213.9820099,3.383006096,213.9820099,3.364442825,213.9820099,3.303258181,213.9820099,3.316641808,
212.9957123,3.256875277,212.9957123,3.281936169,212.9957123,3.419050217,212.9957123,3.339402676,
212.0093536,3.250471115,212.0093536,3.374257326,212.0093536,3.311178684,212.0093536,3.288543224,
210.9834442,3.253418207,210.9834442,3.330767393,210.9834442,3.36895299,210.9834442,3.304549217,
209.9969177,3.314690113,209.9969177,3.356473923,209.9969177,3.419375896,209.9969177,3.447618246,
209.0103302,3.241334438,209.0103302,3.287607908,209.0103302,3.339619637,209.0103302,3.327421665,
207.9841766,3.182910681,207.9841766,3.204427481,207.9841766,3.195801497,207.9841766,3.27525568,
206.997406,3.428940773,206.997406,3.334634304,206.997406,3.274363279,206.997406,3.282702684,
206.0105743,3.212068796,206.0105743,3.268111944,206.0105743,3.203698635,206.0105743,3.350235462,
204.9841614,3.198534966,204.9841614,3.370924234,204.9841614,3.365665913,204.9841614,3.318356037,
203.9971771,3.258110762,203.9971771,3.184633255,203.9971771,3.431867361,203.9971771,3.423593283,
203.0100708,3.097321749,203.0100708,3.160367727,203.0100708,3.326834917,203.0100708,3.194265842,
201.9834442,3.210242033,201.9834442,3.084052086,201.9834442,3.183419943,201.9834442,3.279337645,
200.9962158,3.042004108,200.9962158,3.070045948,200.9962158,3.270176888,200.9962158,3.13031888,
200.0089111,3.234466076,200.0089111,3.173774481,200.0089111,3.187262297,200.0089111,3.128895044,

LN46_0.75_1_0.5mL_s_0.5mL_Ti_4mL_H2O_DF10_24h,
LN46_0.75_1_0.5mL_s_0.5mL_Ti_4mL_H2O_DF10_24h
Collection Time: 2/2/2024 9:52:43 AM
Operator Name  :
Scan Version 5.0.0.999
Parameter List :
Instrument  Cary 60
Instrument Version  2.00
Start (nm)  800.0
Stop (nm)  200.0
X Mode  Nanometers
Y Mode  Abs
UV-Vis Scan Rate (nm/min)  600.00
UV-Vis Data Interval (nm)  1.00
UV-Vis Ave. Time (sec)  0.1000
Beam Mode  Dual Beam
Baseline Correction  On
Baseline Type  Baseline correction
Baseline File Name
Baseline Std Ref File Name
Cycle Mode  Off
Method Log     :
Method Name    :
Date/Time stamp: 2/2/2024 9:49:20 AM
Method Modifications:
UVVIS SAT Changed: 2/2/2024 9:50:37 AM, Old:0.0125, New:0.1000
Common SAT Changed: 2/2/2024 9:50:37 AM, Old:0.0125, New:0.1000
Common Interval nm Changed: 2/2/2024 9:50:41 AM, Old:     5.00, New:     1.00
Baseline Correction Changed: 2/2/2024 9:50:41 AM, Old:0, New:1
End Method Modifications
<Current Wavelength> , 210.0

LN46_0.75_2_0.5mL_s_0.5mL_Ti_4mL_H2O_DF10_24h,
LN46_0.75_2_0.5mL_s_0.5mL_Ti_4mL_H2O_DF10_24h
Collection Time: 2/2/2024 9:54:29 AM
Operator Name  :
Scan Version 5.0.0.999
Parameter List :
Instrument  Cary 60
Instrument Version  2.00
Start (nm)  800.0
Stop (nm)  200.0
X Mode  Nanometers
Y Mode  Abs
UV-Vis Scan Rate (nm/min)  600.00
UV-Vis Data Interval (nm)  1.00
UV-Vis Ave. Time (sec)  0.1000
Beam Mode  Dual Beam
Baseline Correction  On
Baseline Type  Baseline correction
Baseline File Name
Baseline Std Ref File Name
Cycle Mode  Off
Method Log     :
Method Name    :
Date/Time stamp: 2/2/2024 9:49:20 AM
Method Modifications:
UVVIS SAT Changed: 2/2/2024 9:50:37 AM, Old:0.0125, New:0.1000
Common SAT Changed: 2/2/2024 9:50:37 AM, Old:0.0125, New:0.1000
Common Interval nm Changed: 2/2/2024 9:50:41 AM, Old:     5.00, New:     1.00
Baseline Correction Changed: 2/2/2024 9:50:41 AM, Old:0, New:1
End Method Modifications
<Current Wavelength> , 207.0

LN46_0.75_3_0.5mL_s_0.5mL_Ti_4mL_H2O_DF10_24h,
LN46_0.75_3_0.5mL_s_0.5mL_Ti_4mL_H2O_DF10_24h
Collection Time: 2/2/2024 9:56:03 AM
Operator Name  :
Scan Version 5.0.0.999
Parameter List :
Instrument  Cary 60
Instrument Version  2.00
Start (nm)  800.0
Stop (nm)  200.0
X Mode  Nanometers
Y Mode  Abs
UV-Vis Scan Rate (nm/min)  600.00
UV-Vis Data Interval (nm)  1.00
UV-Vis Ave. Time (sec)  0.1000
Beam Mode  Dual Beam
Baseline Correction  On
Baseline Type  Baseline correction
Baseline File Name
Baseline Std Ref File Name
Cycle Mode  Off
Method Log     :
Method Name    :
Date/Time stamp: 2/2/2024 9:49:20 AM
Method Modifications:
UVVIS SAT Changed: 2/2/2024 9:50:37 AM, Old:0.0125, New:0.1000
Common SAT Changed: 2/2/2024 9:50:37 AM, Old:0.0125, New:0.1000
Common Interval nm Changed: 2/2/2024 9:50:41 AM, Old:     5.00, New:     1.00
Baseline Correction Changed: 2/2/2024 9:50:41 AM, Old:0, New:1
End Method Modifications
<Current Wavelength> , 207.0

LN46_0.75_4_0.5mL_s_0.5mL_Ti_4mL_H2O_DF10_24h,
LN46_0.75_4_0.5mL_s_0.5mL_Ti_4mL_H2O_DF10_24h
Collection Time: 2/2/2024 9:57:36 AM
Operator Name  :
Scan Version 5.0.0.999
Parameter List :
Instrument  Cary 60
Instrument Version  2.00
Start (nm)  800.0
Stop (nm)  200.0
X Mode  Nanometers
Y Mode  Abs
UV-Vis Scan Rate (nm/min)  600.00
UV-Vis Data Interval (nm)  1.00
UV-Vis Ave. Time (sec)  0.1000
Beam Mode  Dual Beam
Baseline Correction  On
Baseline Type  Baseline correction
Baseline File Name
Baseline Std Ref File Name
Cycle Mode  Off
Method Log     :
Method Name    :
Date/Time stamp: 2/2/2024 9:49:20 AM
Method Modifications:
UVVIS SAT Changed: 2/2/2024 9:50:37 AM, Old:0.0125, New:0.1000
Common SAT Changed: 2/2/2024 9:50:37 AM, Old:0.0125, New:0.1000
Common Interval nm Changed: 2/2/2024 9:50:41 AM, Old:     5.00, New:     1.00
Baseline Correction Changed: 2/2/2024 9:50:41 AM, Old:0, New:1
End Method Modifications
<Current Wavelength> , 200.0

