LN46_0.75_1_0.5mL_s_0.5mL_Ti_2h,,LN46_0.75_2_0.5mL_s_0.5mL_Ti_2h,,LN46_0.75_3_0.5mL_s_0.5mL_Ti_2h,,LN46_0.75_4_0.5mL_s_0.5mL_Ti_2h,,
Wavelength (nm),Abs,Wavelength (nm),Abs,Wavelength (nm),Abs,Wavelength (nm),Abs,
800.0109253,0.01573345996,800.0109253,-0.0004037369217,800.0109253,0.001241841121,800.0109253,-0.001514223171,
799.007019,0.01482720952,799.007019,-0.00148166751,799.007019,-0.000299086998,799.007019,-0.002035451122,
798.0026855,0.01540556084,798.0026855,-0.00149497902,798.0026855,1.423751564E-005,798.0026855,-0.00247544772,
796.9979248,0.01615590043,796.9979248,-0.001323601464,796.9979248,0.0004621550324,796.9979248,-0.001537438831,
795.9926758,0.01499764901,795.9926758,-0.001029609586,795.9926758,5.228996997E-006,795.9926758,-0.001694189385,
794.9871826,0.01581125334,794.9871826,-0.000504690106,794.9871826,0.0004439900222,794.9871826,-0.001701306086,
794.0158691,0.01560445502,794.0158691,-0.0003563553037,794.0158691,0.0007548432914,794.0158691,-0.001751892851,
793.0095215,0.01505411044,793.0095215,-0.001743436325,793.0095215,-0.0004446485545,793.0095215,-0.002066831803,
792.0026855,0.01519959979,792.0026855,-0.001802112791,792.0026855,-0.0003537688463,792.0026855,-0.002510090824,
790.9956055,0.01458123233,790.9956055,-0.001802473678,790.9956055,-0.0005189623334,790.9956055,-0.002699317876,
789.9880371,0.01563485898,789.9880371,-0.001298257965,789.9880371,7.282333536E-005,789.9880371,-0.00218125619,
789.0148926,0.01532746665,789.0148926,-0.001937842579,789.0148926,-0.0002156283444,789.0148926,-0.00243745558,
788.0064697,0.01538831554,788.0064697,-0.001379599445,788.0064697,-0.0001058607086,788.0064697,-0.002355848672,
786.9977417,0.01482635271,786.9977417,-0.001521445927,786.9977417,-0.0001435916056,786.9977417,-0.00245145848,
785.9886475,0.01573834568,785.9886475,-0.001622345997,785.9886475,-0.0001009953048,785.9886475,-0.002330050571,
785.013855,0.01454354171,785.013855,-0.002429990564,785.013855,-0.001053574262,785.013855,-0.002478639362,
784.0039063,0.01458441745,784.0039063,-0.002124124905,784.0039063,-0.0005052072229,784.0039063,-0.002677244833,
782.9935913,0.01582040638,782.9935913,-0.001287676278,782.9935913,0.0001594609494,782.9935913,-0.002043026034,
781.9829102,0.01518155914,781.9829102,-0.002128195018,781.9829102,-0.001057344372,781.9829102,-0.002892474178,
781.0066528,0.01486436184,781.0066528,-0.001619560644,781.0066528,-0.0002205442142,781.0066528,-0.002331543714,
779.9951782,0.01513703447,779.9951782,-0.001911504194,779.9951782,-0.0005182384048,779.9951782,-0.002549775178,
778.9832153,0.01506651938,778.9832153,-0.001907328959,778.9832153,-0.0006161664496,778.9832153,-0.002529650461,
778.0058594,0.01516842376,778.0058594,-0.001905679586,778.0058594,-0.001135890954,778.0058594,-0.002544268034,
776.9931641,0.01504411455,776.9931641,-0.002002522349,776.9931641,-0.0008543279837,776.9931641,-0.002199285198,
776.0150757,0.01507951692,776.0150757,-0.00151303655,776.0150757,-0.000562034722,776.0150757,-0.002547047334,
775.0015869,0.01509744674,775.0015869,-0.002089347923,775.0015869,-0.0006677585188,775.0015869,-0.002704154234,
773.987793,0.01460537873,773.987793,-0.002142826095,773.987793,-0.0004634738434,773.987793,-0.00289555965,
773.0085449,0.01608124375,773.0085449,-0.001988401869,773.0085449,-0.000104514962,773.0085449,-0.002268097596,
771.9938965,0.01452788338,771.9938965,-0.002775870496,771.9938965,-0.001138937427,771.9938965,-0.003179708729,
771.013916,0.01429644134,771.013916,-0.001974280924,771.013916,-0.0009724816773,771.013916,-0.002899159677,
769.9984741,0.01473440975,769.9984741,-0.001534653013,769.9984741,-0.0008314891602,769.9984741,-0.00281481049,
768.9827881,0.01452175342,768.9827881,-0.002655633725,768.9827881,-0.0008392917225,768.9827881,-0.003206535708,
768.0015869,0.01517105103,768.0015869,-0.002109081019,768.0015869,-0.000379943318,768.0015869,-0.002822114388,
766.9850464,0.01473531965,766.9850464,-0.001944233663,766.9850464,-0.0005477122031,766.9850464,-0.002837802283,
766.0032959,0.01478722133,766.0032959,-0.001774013042,766.0032959,-0.0005138947163,766.0032959,-0.002801745199,
764.9859619,0.01492640562,764.9859619,-0.001723325695,764.9859619,-0.000587627932,764.9859619,-0.002469939645,
764.0033569,0.01508841477,764.0033569,-0.001999636414,764.0033569,-0.000848747557,764.0033569,-0.002930632094,
762.9852905,0.01497760601,762.9852905,-0.002123094629,762.9852905,-0.0007310771034,762.9852905,-0.002805037191,
762.0020142,0.01480013039,762.0020142,-0.002386124805,762.0020142,-0.0008525195299,762.0020142,-0.003273904324,
760.9831543,0.01440185774,760.9831543,-0.002828904195,760.9831543,-0.001033534878,760.9831543,-0.003562222002,
759.9991455,0.01507182512,759.9991455,-0.002081258688,759.9991455,-0.001032243716,759.9991455,-0.002830241341,
759.0147095,0.01427554805,759.0147095,-0.002441059332,759.0147095,-0.001812011702,759.0147095,-0.003659106791,
757.994812,0.01464406587,757.994812,-0.002310327487,757.994812,-0.001377947978,757.994812,-0.003387035104,
757.0096436,0.01426013932,757.0096436,-0.002719589276,757.0096436,-0.001372942002,757.0096436,-0.003496490419,
755.9889526,0.01487834472,755.9889526,-0.002610246884,755.9889526,-0.001555958879,755.9889526,-0.003077781992,
755.0030518,0.01479560416,755.0030518,-0.002035657177,755.0030518,-0.001285818056,755.0030518,-0.003299903357,
754.0168457,0.01446129289,754.0168457,-0.002436940791,754.0168457,-0.001058738795,754.0168457,-0.003400288522,
752.9949951,0.0144671537,752.9949951,-0.002395186573,752.9949951,-0.00133366615,752.9949951,-0.003376298817,
752.0080566,0.01440712903,752.0080566,-0.002646886045,752.0080566,-0.0007833273266,752.0080566,-0.003180633998,
750.9854736,0.01467667706,750.9854736,-0.002293590456,750.9854736,-0.001000323449,750.9854736,-0.003233977826,
749.9978027,0.01443196274,749.9978027,-0.002248989884,749.9978027,-0.001242042985,749.9978027,-0.003095414024,
749.0097046,0.01452713367,749.0097046,-0.002616010606,749.0097046,-0.001122826594,749.0097046,-0.003428437281,
747.986084,0.01425326522,747.986084,-0.002535054926,747.986084,-0.001592325978,747.986084,-0.003351845546,
746.9972534,0.01417679433,746.9972534,-0.002679354511,746.9972534,-0.001336608082,746.9972534,-0.00372317154,
746.0082397,0.0149535723,746.0082397,-0.002447700361,746.0082397,-0.0009974824497,746.0082397,-0.003140390385,
744.9833984,0.01446030289,744.9833984,-0.002556157298,744.9833984,-0.00126692513,744.9833984,-0.003361503594,
743.9935913,0.01467268728,743.9935913,-0.002323047025,743.9935913,-0.001194442972,743.9935913,-0.003198415972,
743.003418,0.01474105101,743.003418,-0.002466130303,743.003418,-0.00078999385,743.003418,-0.003036500886,
742.0129395,0.01453620754,742.0129395,-0.002151686931,742.0129395,-0.00107598817,742.0129395,-0.003057424678,
740.9866333,0.01483385265,740.9866333,-0.002257230459,740.9866333,-0.0009050135268,740.9866333,-0.002743049292,
739.9954224,0.01471424475,739.9954224,-0.002214686479,739.9954224,-0.000961737067,739.9954224,-0.002764398698,
739.0037842,0.01453021169,739.0037842,-0.00216533849,739.0037842,-0.001067725127,739.0037842,-0.003166294657,
738.0119019,0.01471462008,738.0119019,-0.002266037511,738.0119019,-0.0009609105182,738.0119019,-0.002952383831,
736.9841919,0.01504055038,736.9841919,-0.002349051647,736.9841919,-0.0006267128047,736.9841919,-0.002866862109,
735.9914551,0.01403616555,735.9914551,-0.002324025612,735.9914551,-0.001108419383,735.9914551,-0.003089605365,
734.9985352,0.01460034586,734.9985352,-0.002189137507,734.9985352,-0.0008366564289,734.9985352,-0.002988171531,
734.005188,0.01489471272,734.005188,-0.002377474681,734.005188,-0.001074283966,734.005188,-0.003071921645,
733.0115356,0.01508589555,733.0115356,-0.001876607072,733.0115356,-0.0006418598932,733.0115356,-0.002760386094,
732.0174561,0.01472755428,732.0174561,-0.001986340387,732.0174561,-0.0007414139691,732.0174561,-0.002933974611,
730.9875488,0.01504148915,730.9875488,-0.001997111132,730.9875488,-0.0005402663955,730.9875488,-0.002647966612,
729.9928589,0.01490727719,729.9928589,-0.002014684025,729.9928589,-0.000764205819,729.9928589,-0.002577464562,
728.9976807,0.01588537917,728.9976807,-0.001657263492,728.9976807,-0.0002451227047,728.9976807,-0.002326394198,
728.0023193,0.01568074897,728.0023193,-0.001614815323,728.0023193,-0.000187166981,728.0023193,-0.002182904631,
727.0065308,0.01574030519,727.0065308,-0.00173745479,727.0065308,-0.0003107792581,727.0065308,-0.002141332021,
726.010437,0.01633347385,726.010437,-0.001139195636,726.010437,5.438982407E-005,726.010437,-0.001983609051,
725.0139771,0.0160371922,725.0139771,-0.001338620903,725.0139771,9.534848505E-005,725.0139771,-0.001823405502,
724.0171509,0.0159424413,724.0171509,-0.001240649144,724.0171509,0.0001280767756,724.0171509,-0.002080898033,
722.984436,0.01546532195,722.984436,-0.001434970996,722.984436,-3.722242764E-005,722.984436,-0.001909184619,
721.9869385,0.01661995426,721.9869385,-0.0007177938824,721.9869385,0.0004351539828,721.9869385,-0.001622707001,
720.9890747,0.01596545428,720.9890747,-0.001271261252,720.9890747,0.0002466856677,720.9890747,-0.002035039011,
719.9909058,0.01614687406,719.9909058,-0.0008968504844,719.9909058,0.0006787424791,719.9909058,-0.001293612411,
718.9923096,0.0159118548,718.9923096,-0.000739139854,718.9923096,0.0002093384974,718.9923096,-0.001558538177,
717.9935913,0.01635739766,717.9935913,-0.0006790790358,717.9935913,0.0004392739793,717.9935913,-0.001736681326,
716.9943848,0.01624607667,716.9943848,-0.0008012077888,716.9943848,0.0004149172455,716.9943848,-0.001479139319,
715.994812,0.01693162695,715.994812,-0.0007629654719,715.994812,0.0007370809326,715.994812,-0.00151525496,
714.9949341,0.01656291261,714.9949341,-0.0005326652899,714.9949341,0.0007692352519,714.9949341,-0.00137629651,
713.994751,0.01673182845,713.994751,-0.0003869780921,713.994751,0.001007380895,713.994751,-0.001268731896,
712.9941406,0.01689429767,712.9941406,-0.0007294748793,712.9941406,0.000503022573,712.9941406,-0.001672580955,
711.9932861,0.01661543734,711.9932861,-0.0005345267709,711.9932861,0.0006776535884,711.9932861,-0.001240855665,
710.9921265,0.01662355848,710.9921265,-0.001113738166,710.9921265,0.000478351285,710.9921265,-0.001427437179,
709.9904785,0.0168723911,709.9904785,-0.0003763224231,709.9904785,0.0008300756454,709.9904785,-0.001352710999,
708.9885864,0.01736496203,708.9885864,-0.0008908573072,708.9885864,0.0006748535088,708.9885864,-0.001150142401,
707.9863892,0.01710701548,707.9863892,-0.0006176657043,707.9863892,0.000812284241,707.9863892,-0.001224283944,
706.9838257,0.01673831232,706.9838257,-0.0005097061512,706.9838257,0.001006343053,706.9838257,-0.001025064383,
706.0167236,0.01673739776,706.0167236,-0.0002384995896,706.0167236,0.001263051061,706.0167236,-0.0008539146511,
705.0135498,0.01696233824,705.0135498,-0.000527235854,705.0135498,0.0008235140122,705.0135498,-0.0009226305992,
704.0099487,0.01682128944,704.0099487,-0.0006501827738,704.0099487,0.0009648833075,704.0099487,-0.0008943188586,
703.0061035,0.01681332476,703.0061035,-0.0005183418398,703.0061035,0.0004289610661,703.0061035,-0.001024806174,
702.0018311,0.01714355499,702.0018311,-0.0002742528741,702.0018311,0.001277537667,702.0018311,-0.0008245132631,
700.9973755,0.01726725325,700.9973755,-0.0001468004048,700.9973755,0.001176815946,700.9973755,-0.0007954199682,
699.9924927,0.01736280695,699.9924927,-0.0001744881447,699.9924927,0.001299372525,699.9924927,-0.000926763576,
698.9872437,0.01739551499,698.9872437,-0.0003247474669,698.9872437,0.001017992967,698.9872437,-0.000820379355,
698.0175781,0.0177701693,698.0175781,-0.0006992897252,698.0175781,0.0008720931946,698.0175781,-0.00107299292,
697.0117798,0.01748484373,697.0117798,-0.000514825515,697.0117798,0.001032263972,697.0117798,-0.0006442378508,
696.0056152,0.01727573946,696.0056152,-0.0003560966579,696.0056152,0.0008791483706,696.0056152,-0.0009349260363,
694.9990845,0.01766455173,694.9990845,-0.0001034797751,694.9990845,0.001567788539,694.9990845,-0.0003428537166,
693.9921875,0.01731751859,693.9921875,-0.0002604900219,693.9921875,0.001232936862,693.9921875,-0.0007675650995,
692.9850464,0.0170562081,692.9850464,-0.0001426082745,692.9850464,0.001516793622,692.9850464,-0.0008247199585,
692.0135498,0.01738479175,692.0135498,-9.804497677E-005,692.0135498,0.001355976681,692.0135498,-0.0006335885264,
691.0057373,0.01751001365,691.0057373,-0.0001279613789,691.0057373,0.001775311073,691.0057373,-0.0006790273474,
689.9975586,0.01795560867,689.9975586,0.0001944471442,689.9975586,0.001782952808,689.9975586,-0.0002311002027,
688.9891357,0.01781218685,688.9891357,0.0006183639634,688.9891357,0.001671849284,688.9891357,-0.0004292360391,
688.0162964,0.01748301089,688.0162964,-0.0001522863313,688.0162964,0.001093270956,688.0162964,-0.0006188547704,
687.0072021,0.01802235842,687.0072021,-0.0001308079809,687.0072021,0.00175672723,687.0072021,-0.0007977971109,
685.9978027,0.01727673598,685.9978027,-0.0003320417891,685.9978027,0.0009509777883,685.9978027,-0.000777074194,
684.9880371,0.01753160357,684.9880371,0.0001738072751,684.9880371,0.001316976151,684.9880371,-0.0004119092191,
684.0139771,0.01775428653,684.0139771,0.0002600765147,684.0139771,0.001360079506,684.0139771,-0.0007972803432,
683.0036621,0.01773133874,683.0036621,8.361972868E-005,683.0036621,0.001468012459,683.0036621,-0.0006775799557,
681.9929199,0.01717180386,681.9929199,-7.599455421E-005,681.9929199,0.001471960451,681.9929199,-0.0006774765789,
681.0179443,0.0172289256,681.0179443,-8.801140211E-006,681.0179443,0.0009584493819,681.0179443,-0.000882694032,
680.0065918,0.0174380336,680.0065918,-0.000119783741,680.0065918,0.001131784287,680.0065918,-0.0009087849758,
678.9949951,0.01772699691,678.9949951,0.000115725692,678.9949951,0.001302228542,678.9949951,-0.000834434526,
677.9829712,0.01719862595,677.9829712,0.0002450798347,677.9829712,0.00150333799,677.9829712,-0.0005320447963,
677.0068359,0.01763416827,677.0068359,-0.0001115024352,677.0068359,0.001596704824,677.0068359,-0.000370684138,
675.9942017,0.01755486242,675.9942017,9.480476001E-005,675.9942017,0.001692456426,675.9942017,-0.0006359665422,
675.0174561,0.0178726837,675.0174561,-0.000279478525,675.0174561,0.001565606217,675.0174561,-0.0003142454952,
674.0042725,0.01794983447,674.0042725,0.0002330880234,674.0042725,0.001815002644,674.0042725,-0.000132981746,
672.9906006,0.01808979362,672.9906006,0.0003961064795,672.9906006,0.001719561755,672.9906006,-0.0003146593517,
672.0130005,0.01747163758,672.0130005,4.289516801E-005,672.0130005,0.001297632931,672.0130005,-0.0003960299946,
670.9987793,0.01769685186,670.9987793,0.0002738563344,670.9987793,0.001440013759,670.9987793,-0.0002237524313,
669.984314,0.01738883369,669.984314,0.0002476958034,669.984314,0.001439546235,669.984314,-0.0004958473146,
669.0056763,0.0179215353,669.0056763,0.0002647129004,669.0056763,0.001599666663,669.0056763,-5.006057836E-005,
667.9906006,0.01766382344,667.9906006,0.0002191023232,667.9906006,0.001427729148,667.9906006,-0.0005845775013,
667.0114136,0.01729704626,667.0114136,0.0003626843973,667.0114136,0.001623128541,667.0114136,-0.0005695835571,
665.9956665,0.01759432442,665.9956665,0.0002583152382,665.9956665,0.001599770621,665.9956665,-0.0004557679931,
665.0159302,0.01790491864,665.0159302,3.523223131E-005,665.0159302,0.001408484997,665.0159302,-0.0006102210609,
663.9995728,0.01783198304,663.9995728,7.010486297E-005,663.9995728,0.001737208455,663.9995728,-0.0002981557627,
662.9829102,0.01766689681,662.9829102,-0.000446613878,662.9829102,0.001739807427,662.9829102,-0.0002477098315,
662.0021362,0.01754494384,662.0021362,-0.0001958608336,662.0021362,0.001450818265,662.0021362,-0.0004436658928,
660.9849243,0.01709791459,660.9849243,-4.576397987E-005,660.9849243,0.001455051824,660.9849243,-0.0007503034431,
660.0036621,0.01796877384,660.0036621,0.0002315081365,660.0036621,0.001855165814,660.0036621,-0.0001903236989,
658.9857788,0.01865913346,658.9857788,9.874030366E-005,658.9857788,0.001947230194,658.9857788,-0.0001634650107,
658.0039063,0.01838939823,658.0039063,0.0002279598848,658.0039063,0.001885375124,658.0039063,-0.0001155913487,
656.9853516,0.01855594665,656.9853516,0.0004275100364,656.9853516,0.001990240067,656.9853516,-9.064320329E-005,
656.0029297,0.01845451258,656.0029297,0.0006208007107,656.0029297,0.00180333131,656.0029297,0.0002115657699,
654.9838257,0.0183857251,654.9838257,0.0005862467224,654.9838257,0.001938935602,654.9838257,-0.0003156940511,
654.0007935,0.01812657714,654.0007935,0.0002203713811,654.0007935,0.001807074412,654.0007935,-7.402755728E-005,
653.0174561,0.01805544086,653.0174561,0.0005196350394,653.0174561,0.00226527662,653.0174561,0.0003898104769,
651.9974365,0.01821497642,651.9974365,0.0008047373849,651.9974365,0.00248862314,651.9974365,0.0001575705828,
651.0135498,0.01854503155,651.0135498,0.0005110566271,651.0135498,0.001789684873,651.0135498,0.0001286723273,
649.992981,0.01845915988,649.992981,0.0004145803978,649.992981,0.001941275666,649.992981,-5.45641924E-005,
649.0084229,0.01880251057,649.0084229,0.0007305206964,649.0084229,0.002210349077,649.0084229,0.0002117211552,
647.9871826,0.0191456452,647.9871826,0.0001578036463,647.9871826,0.002045139903,647.9871826,0.0001392370614,
647.0021362,0.01842156239,647.0021362,0.0004394294519,647.0021362,0.001861821045,647.0021362,0.0002395630436,
646.0167847,0.01873328909,646.0167847,0.0005906014703,646.0167847,0.002190992003,646.0167847,7.310813089E-005,
644.9946899,0.01844519563,644.9946899,0.0005874650087,644.9946899,0.002381035127,644.9946899,-0.0001172993652,
644.008728,0.01898403652,644.008728,0.0006981618353,644.008728,0.002308214083,644.008728,-2.479804971E-005,
642.9860229,0.01897762716,642.9860229,0.0005745306262,642.9860229,0.002327862429,642.9860229,0.0002472036867,
641.9995117,0.01900905184,641.9995117,0.0006934689591,641.9995117,0.002206212142,641.9995117,0.0001470571879,
641.0126953,0.01876847818,641.0126953,0.0009290308226,641.0126953,0.002694450552,641.0126953,0.0002210188541,
639.9891357,0.01896905527,639.9891357,0.0007808269584,639.9891357,0.002667700872,639.9891357,0.000454666093,
639.00177,0.0188605506,639.00177,0.0007123185205,639.00177,0.002634650562,639.00177,0.0004531372106,
638.0141602,0.0192709174,638.0141602,0.001000271761,638.0141602,0.002574936952,638.0141602,0.0004584235139,
636.989624,0.01879461668,636.989624,0.001344551332,636.989624,0.002947910223,636.989624,0.001018460025,
636.0014038,0.01899877377,636.0014038,0.001032134169,636.0014038,0.002776636742,636.0014038,0.0008021958638,
635.0129395,0.01934620552,635.0129395,0.001001491211,635.0129395,0.003054335713,635.0129395,0.0006220450159,
633.9875488,0.01935687102,633.9875488,0.001314639347,633.9875488,0.0031342695,633.9875488,0.001203707419,
632.9985352,0.01918768696,632.9985352,0.001637367415,632.9985352,0.003140944289,632.9985352,0.001088651712,
632.0092163,0.0194294136,632.0092163,0.00140612165,632.0092163,0.003200162202,632.0092163,0.001260091434,
630.9829102,0.02012082562,630.9829102,0.001555916038,630.9829102,0.003519936698,630.9829102,0.001436819206,
629.993042,0.01957263798,629.993042,0.001372258295,629.993042,0.003310509725,629.993042,0.001143593225,
629.0028687,0.01923603751,629.0028687,0.001608708291,629.0028687,0.003418276319,629.0028687,0.001365091186,
628.0123901,0.01996270008,628.0123901,0.001672135084,628.0123901,0.00361817563,628.0123901,0.001399681205,
626.9849854,0.0202495791,626.9849854,0.001548693981,626.9849854,0.00365866255,626.9849854,0.00141586049,
625.9939575,0.0201199837,625.9939575,0.00143642968,625.9939575,0.003393412801,625.9939575,0.001438689185,
625.0026855,0.01970339753,625.0026855,0.001575582428,625.0026855,0.003884032834,625.0026855,0.001396954409,
624.0111084,0.02069329657,624.0111084,0.001678709523,624.0111084,0.003760875436,624.0111084,0.001753790188,
622.9824829,0.02014425211,622.9824829,0.001900142641,622.9824829,0.003871339606,622.9824829,0.001856075716,
621.9904175,0.0205759462,621.9904175,0.002156391041,621.9904175,0.004017989151,621.9904175,0.001965276198,
620.9980469,0.02059787698,620.9980469,0.001906980528,620.9980469,0.004019086715,620.9980469,0.001907552476,
620.0054321,0.02055683918,620.0054321,0.002026648493,620.0054321,0.00431514997,620.0054321,0.001932331128,
619.0124512,0.02096370608,619.0124512,0.002171323868,619.0124512,0.004187217914,619.0124512,0.00215493422,
617.9824829,0.02114420757,617.9824829,0.002287785755,617.9824829,0.004495087545,617.9824829,0.00224995031,
616.9890137,0.02053634822,616.9890137,0.00230584573,616.9890137,0.004503744654,616.9890137,0.002235691296,
615.9951782,0.0214838963,615.9951782,0.002270455007,615.9951782,0.004608590156,615.9951782,0.002351519885,
615.0012207,0.02092249691,615.0012207,0.002671712078,615.0012207,0.004675648641,615.0012207,0.002538951347,
614.006897,0.02084266953,614.006897,0.002175720409,614.006897,0.004973233677,614.006897,0.002487998456,
613.0122681,0.02111771144,613.0122681,0.002521740738,613.0122681,0.005130340345,613.0122681,0.002962687984,
612.0174561,0.0213452857,612.0174561,0.002909548348,612.0174561,0.005174531136,612.0174561,0.002823454794,
610.9855347,0.02094037086,610.9855347,0.0028748638,610.9855347,0.005310196429,610.9855347,0.003057594178,
609.9900513,0.02145783976,609.9900513,0.002793414518,609.9900513,0.005309986882,609.9900513,0.00306113949,
608.9944458,0.0216101706,608.9944458,0.003057020716,608.9944458,0.005828619935,608.9944458,0.003256258322,
607.9985352,0.02195242792,607.9985352,0.003210462863,607.9985352,0.005859238096,607.9985352,0.003422789974,
607.0023193,0.02194581181,607.0023193,0.003463676199,607.0023193,0.006206289865,607.0023193,0.003828534624,
606.0059204,0.02137946524,606.0059204,0.003159770044,606.0059204,0.00598601019,606.0059204,0.003812761279,
605.0091553,0.02250507474,605.0091553,0.003623918165,605.0091553,0.006420743652,605.0091553,0.003970363177,
604.012146,0.02265758067,604.012146,0.003713042475,604.012146,0.006250275299,604.012146,0.003911092412,
603.0148926,0.02294354327,603.0148926,0.004102359992,603.0148926,0.006750839297,603.0148926,0.004337948747,
602.017395,0.02294570021,602.017395,0.003851203248,602.017395,0.006790068001,602.017395,0.004351335578,
600.982605,0.0227691941,600.982605,0.003961376846,600.982605,0.006966956891,600.982605,0.00430131983,
599.9846191,0.02333733067,599.9846191,0.004426304251,599.9846191,0.00754380459,599.9846191,0.005002194084,
598.9862671,0.0232641045,598.9862671,0.004260250367,598.9862671,0.007699973416,598.9862671,0.005042574834,
597.9876709,0.02344174124,597.9876709,0.004741461482,597.9876709,0.008039270528,597.9876709,0.005191375967,
596.9888306,0.02380806021,596.9888306,0.004763601813,596.9888306,0.008111634292,596.9888306,0.005504939239,
595.9896851,0.02436019853,595.9896851,0.005313131493,595.9896851,0.008783609606,595.9896851,0.005817522295,
594.9903564,0.02428176254,594.9903564,0.005178408232,594.9903564,0.008659346029,594.9903564,0.00619452633,
593.9907227,0.02481169999,593.9907227,0.005536898039,593.9907227,0.009112281725,593.9907227,0.006457630545,
592.9908447,0.02476198599,592.9908447,0.005839770194,592.9908447,0.009518273175,592.9908447,0.006543054711,
591.9907227,0.02533103526,591.9907227,0.006248121615,591.9907227,0.009751788341,591.9907227,0.006956461351,
590.9902954,0.02555970289,590.9902954,0.006095860153,590.9902954,0.009977933951,590.9902954,0.007064373698,
589.989563,0.02623339929,589.989563,0.00663593458,589.989563,0.01033648476,589.989563,0.007460579742,
588.9886475,0.02606390789,588.9886475,0.006571568549,588.9886475,0.01089003682,588.9886475,0.007701843977,
587.9874878,0.02638493851,587.9874878,0.00690601347,587.9874878,0.01112296339,587.9874878,0.007922653109,
586.9860229,0.02652855031,586.9860229,0.007120602764,586.9860229,0.0113063287,586.9860229,0.008299352601,
585.984314,0.02698446251,585.984314,0.007456392515,585.984314,0.0120395273,585.984314,0.00878878776,
584.9823608,0.02723911218,584.9823608,0.007775337901,584.9823608,0.01238002162,584.9823608,0.009302073158,
584.0172119,0.02825834788,584.0172119,0.007941740565,584.0172119,0.01248961035,584.0172119,0.009394221939,
583.0147705,0.02809253894,583.0147705,0.008561227471,583.0147705,0.01331339125,583.0147705,0.009931979701,
582.0120239,0.02842206508,582.0120239,0.008815255947,582.0120239,0.01389820222,582.0120239,0.01055444777,
581.0090332,0.02910140902,581.0090332,0.009256058373,581.0090332,0.0141043216,581.0090332,0.01115100924,
580.0058594,0.02933434211,580.0058594,0.009398586117,580.0058594,0.01458259765,580.0058594,0.01134270336,
579.0023804,0.0296331346,579.0023804,0.009971470572,579.0023804,0.01522761583,579.0023804,0.01193255372,
577.9985962,0.02987811156,577.9985962,0.01009423006,577.9985962,0.01541430503,577.9985962,0.0121120289,
576.9945679,0.02959957346,576.9945679,0.01040971,576.9945679,0.01600831747,576.9945679,0.01248697285,
575.9902954,0.03064553812,575.9902954,0.01091822702,575.9902954,0.01654545963,575.9902954,0.01321373601,
574.9858398,0.03150560707,574.9858398,0.0113183381,574.9858398,0.01722935773,574.9858398,0.01364655234,
574.0183105,0.03164120764,574.0183105,0.01174583845,574.0183105,0.01789660938,574.0183105,0.01431912743,
573.0132446,0.03246023878,573.0132446,0.01209217217,573.0132446,0.01818217896,573.0132446,0.01444850117,
572.0079956,0.03262621537,572.0079956,0.01245122217,572.0079956,0.01883473247,572.0079956,0.01526338141,
571.0025024,0.0329166986,571.0025024,0.01308288891,571.0025024,0.01965740509,571.0025024,0.01585415378,
569.9967041,0.03434860706,569.9967041,0.01356273796,569.9967041,0.02018281072,569.9967041,0.0164925959,
568.9907837,0.03446511552,568.9907837,0.01416510716,568.9907837,0.02099234052,568.9907837,0.01702960953,
567.984436,0.03466043249,567.984436,0.01448353287,567.984436,0.02190990001,567.984436,0.01786882617,
567.0153198,0.03558061272,567.0153198,0.01499451417,567.0153198,0.02216998115,567.0153198,0.01808550209,
566.0084839,0.03596941009,566.0084839,0.01551945694,566.0084839,0.02305585891,566.0084839,0.01905448735,
565.0015259,0.03718953207,565.0015259,0.0162061993,565.0015259,0.02412225306,565.0015259,0.01987253688,
563.9942627,0.03773676232,563.9942627,0.01667291671,563.9942627,0.02463213354,563.9942627,0.02037348785,
562.9868164,0.03766787425,562.9868164,0.01718946919,562.9868164,0.02555253729,562.9868164,0.02113581076,
562.0163574,0.03802783042,562.0163574,0.01797694899,562.0163574,0.02616666816,562.0163574,0.02194221877,
561.0084229,0.03949319199,561.0084229,0.01851329021,561.0084229,0.02718239464,561.0084229,0.02264252678,
560.0001221,0.04043922201,560.0001221,0.01916977763,560.0001221,0.02835469134,560.0001221,0.02362598293,
558.9916992,0.04029599205,558.9916992,0.01979244314,558.9916992,0.02922349423,558.9916992,0.02437621541,
557.9829712,0.04153745994,557.9829712,0.02073388733,557.9829712,0.03023957834,557.9829712,0.02533841692,
557.0114136,0.0424714312,557.0114136,0.02146368846,557.0114136,0.03137692437,557.0114136,0.02640028857,
556.0021973,0.04396091029,556.0021973,0.02214203216,556.0021973,0.03232719749,556.0021973,0.02745665424,
554.9927368,0.04417541996,554.9927368,0.02297230996,554.9927368,0.03330504522,554.9927368,0.02829183266,
553.9830933,0.04479216784,553.9830933,0.0236774534,553.9830933,0.03450421244,553.9830933,0.02923814207,
553.0105591,0.04638811201,553.0105591,0.0247749202,553.0105591,0.03563242406,553.0105591,0.03031554259,
552.0003052,0.04722899199,552.0003052,0.02540699765,552.0003052,0.03694355115,552.0003052,0.03158137947,
550.9899902,0.04818646237,550.9899902,0.02643453702,550.9899902,0.03805198893,550.9899902,0.03263835609,
550.0167847,0.04939349368,550.0167847,0.02719402313,550.0167847,0.03923222423,550.0167847,0.0337164849,
549.0058594,0.05045514926,549.0058594,0.02826887369,549.0058594,0.04089118168,549.0058594,0.03520737588,
547.9946899,0.05085947737,547.9946899,0.02915203758,547.9946899,0.0419732295,547.9946899,0.03622825816,
546.9833984,0.05262773484,546.9833984,0.03017866425,546.9833984,0.04333101213,546.9833984,0.0375116393,
546.0092773,0.05382556841,546.0092773,0.03105877526,546.0092773,0.04471936449,546.0092773,0.03873389959,
544.9974365,0.05516894907,544.9974365,0.0323898904,544.9974365,0.04655992985,544.9974365,0.04011430964,
543.9854126,0.05539024249,543.9854126,0.03346922249,543.9854126,0.04802440479,543.9854126,0.04155156016,
543.0105591,0.0570403859,543.0105591,0.03437945619,543.0105591,0.04932171479,543.0105591,0.04293271154,
541.9979858,0.05805357546,541.9979858,0.03573404253,541.9979858,0.05094265938,541.9979858,0.04424305633,
540.9851685,0.0604181774,540.9851685,0.03693050146,540.9851685,0.05262767896,540.9851685,0.04574378207,
540.0097046,0.06167271733,540.0097046,0.03818775713,540.0097046,0.05444929004,540.0097046,0.04769327864,
538.99646,0.06281932443,538.99646,0.03961786628,538.99646,0.0563991107,538.99646,0.0491091758,
537.9830322,0.06412280351,537.9830322,0.04093620926,537.9830322,0.05855855346,537.9830322,0.05107165501,
537.0067749,0.06572433561,537.0067749,0.04206781462,537.0067749,0.06001632661,537.0067749,0.05258072168,
535.9928589,0.06732285023,535.9928589,0.04350643605,535.9928589,0.06193970889,535.9928589,0.05422064662,
535.0162964,0.06819697469,535.0162964,0.0451034829,535.0162964,0.06413201988,535.0162964,0.05616395921,
534.0018921,0.07010377198,534.0018921,0.04682211578,534.0018921,0.06628134847,534.0018921,0.05823291466,
532.9871826,0.07196832448,532.9871826,0.0480460003,532.9871826,0.06817980111,532.9871826,0.05984682217,
532.0099487,0.07386497408,532.0099487,0.04963676259,532.0099487,0.07045292854,532.0099487,0.06183517352,
530.994812,0.07501547784,530.994812,0.05128789693,530.994812,0.07284343988,530.994812,0.06409217417,
530.0170898,0.07658216357,530.0170898,0.05332176015,530.0170898,0.0754608959,530.0170898,0.06651462615,
529.0015259,0.07933038473,529.0015259,0.05485207215,529.0015259,0.07758302242,529.0015259,0.06841112673,
527.9857178,0.08214361221,527.9857178,0.05657048896,527.9857178,0.07997614145,527.9857178,0.07048553973,
527.0073242,0.08355452865,527.0073242,0.05859101936,527.0073242,0.08274117112,527.0073242,0.07309307158,
525.9910278,0.08571988344,525.9910278,0.06057245657,525.9910278,0.08552914858,525.9910278,0.07554597408,
525.012207,0.08830740303,525.012207,0.0622612685,525.012207,0.08776281029,525.012207,0.07769079506,
523.9955444,0.09019239992,523.9955444,0.06416808814,523.9955444,0.09058698267,523.9955444,0.08004358411,
523.0162354,0.09181241691,523.0162354,0.06644818932,523.0162354,0.09364774823,523.0162354,0.08281443268,
521.9991455,0.09449535608,521.9991455,0.06854972243,521.9991455,0.09656184912,521.9991455,0.08558585495,
520.9817505,0.09628491849,520.9817505,0.07092182338,520.9817505,0.09979426116,520.9817505,0.08838801831,
520.0018311,0.09871928394,520.0018311,0.0728322342,520.0018311,0.1026786864,520.0018311,0.09112916142,
518.9839478,0.1013691872,518.9839478,0.0752049461,518.9839478,0.1057799086,518.9839478,0.09399321675,
518.0036011,0.1043073386,518.0036011,0.07729293406,518.0036011,0.1086252108,518.0036011,0.09631468356,
516.9853516,0.1064883769,516.9853516,0.07961151004,516.9853516,0.1120619178,516.9853516,0.09958571941,
516.0045776,0.1094111651,516.0045776,0.08224392682,516.0045776,0.1156267673,516.0045776,0.1028420478,
514.9859009,0.1120196655,514.9859009,0.08480137587,514.9859009,0.1191427857,514.9859009,0.1059327424,
514.0046387,0.1148433834,514.0046387,0.08744230121,514.0046387,0.122793749,514.0046387,0.1092777401,
512.9855347,0.1177119538,512.9855347,0.09007067978,512.9855347,0.1263146698,512.9855347,0.1128434837,
512.0039063,0.1210286617,512.0039063,0.09277899563,512.0039063,0.1300417036,512.0039063,0.1158706099,
510.9842224,0.1234644651,510.9842224,0.09588570893,510.9842224,0.1340526491,510.9842224,0.1196066514,
510.0021667,0.1262704581,510.0021667,0.09844961762,510.0021667,0.1379295737,510.0021667,0.1232238859,
508.9820862,0.1296526939,508.9820862,0.1014710367,508.9820862,0.1424900889,508.9820862,0.1270976365,
507.9996338,0.1326659322,507.9996338,0.1038378552,507.9996338,0.1457064301,507.9996338,0.1300771832,
507.0169678,0.1363935024,507.0169678,0.1071513593,507.0169678,0.1504182965,507.0169678,0.1343789101,
505.9962463,0.1392949075,505.9962463,0.1103065908,505.9962463,0.1546162367,505.9962463,0.1381492019,
505.0131531,0.1435450464,505.0131531,0.1136782169,505.0131531,0.1594890207,505.0131531,0.1423979551,
503.9919739,0.1471937895,503.9919739,0.1175932959,503.9919739,0.1643501669,503.9919739,0.1471164078,
503.0084534,0.1506343633,503.0084534,0.120300293,503.0084534,0.1686440408,503.0084534,0.1507381201,
501.9868469,0.1548445821,501.9868469,0.1242771149,501.9868469,0.1739285886,501.9868469,0.1557941735,
501.0029297,0.1579729617,501.0029297,0.1275215,501.0029297,0.1786564291,501.0029297,0.1598684192,
500.0187683,0.1619106382,500.0187683,0.1313260198,500.0187683,0.1837693453,500.0187683,0.1644628048,
498.996582,0.166705355,498.996582,0.1353695542,498.996582,0.1893023252,498.996582,0.1696920544,
498.0119934,0.1704595834,498.0119934,0.1388183385,498.0119934,0.1941402555,498.0119934,0.1742065102,
496.9893188,0.1747995019,496.9893188,0.1426328719,496.9893188,0.1997208148,496.9893188,0.1788486838,
496.004364,0.1785634756,496.004364,0.1464614868,496.004364,0.2045495659,496.004364,0.1833341271,
494.9812927,0.1833478659,494.9812927,0.1504390091,494.9812927,0.2102409005,494.9812927,0.1886465997,
493.9958801,0.1877401173,493.9958801,0.1548114866,493.9958801,0.2166411877,493.9958801,0.1939668357,
493.0102844,0.1913660318,493.0102844,0.1589205116,493.0102844,0.2218407094,493.0102844,0.1988335699,
491.9866028,0.1959506571,491.9866028,0.1631891578,491.9866028,0.2276545018,491.9866028,0.2043195367,
491.0006104,0.2006691992,491.0006104,0.1664904803,491.0006104,0.232225135,491.0006104,0.2084452361,
490.0144043,0.2056067288,490.0144043,0.1708842069,490.0144043,0.2387221605,490.0144043,0.2140604854,
488.9900208,0.2098901719,488.9900208,0.1759670824,488.9900208,0.2457070649,488.9900208,0.2207625806,
488.0034485,0.2153684944,488.0034485,0.1808724999,488.0034485,0.2520066202,488.0034485,0.2262890935,
487.0166626,0.2202636898,487.0166626,0.1846499145,487.0166626,0.2578593194,487.0166626,0.2313774079,
485.9916382,0.2252591401,485.9916382,0.1893361509,485.9916382,0.2644587159,485.9916382,0.2372960448,
485.004425,0.2298292071,485.004425,0.1945442706,485.004425,0.2714604735,485.004425,0.2438836545,
484.0170288,0.2354480624,484.0170288,0.1988458484,484.0170288,0.2777434587,484.0170288,0.2494710386,
482.9914246,0.2409030646,482.9914246,0.2028891444,482.9914246,0.2832027078,482.9914246,0.2546169758,
482.0036316,0.2467066944,482.0036316,0.2083094269,482.0036316,0.290863663,482.0036316,0.261464417,
481.015625,0.2512622476,481.015625,0.2137306184,481.015625,0.2979167402,481.015625,0.2677360475,
479.9894104,0.2571789324,479.9894104,0.2189605087,479.9894104,0.305439949,479.9894104,0.2745263577,
479.0010071,0.2625660896,479.0010071,0.2245460898,479.0010071,0.3122808039,479.0010071,0.2811465859,
478.0123596,0.2685081959,478.0123596,0.2294322699,478.0123596,0.3194606602,478.0123596,0.2877713144,
476.9855347,0.2751727998,476.9855347,0.2351918519,476.9855347,0.3281623721,476.9855347,0.2950777113,
475.9965515,0.2808223367,475.9965515,0.2406935096,475.9965515,0.3354024589,475.9965515,0.3012030423,
475.0073242,0.2867861986,475.0073242,0.2458912581,475.0073242,0.3434067369,475.0073242,0.308677882,
474.0179443,0.2922630906,474.0179443,0.2517252266,474.0179443,0.3506018817,474.0179443,0.3150969744,
472.9902954,0.2986431122,472.9902954,0.2575751841,472.9902954,0.3586910963,472.9902954,0.3228618503,
472.0005493,0.3048449755,472.0005493,0.2635164857,472.0005493,0.3666543663,472.0005493,0.3301299512,
471.0105896,0.311876744,471.0105896,0.2688290477,471.0105896,0.3755292296,471.0105896,0.3371329606,
469.9822998,0.3178256154,469.9822998,0.2752923071,469.9822998,0.383542031,469.9822998,0.3448130786,
468.9919739,0.323802501,468.9919739,0.2810915411,468.9919739,0.3909204304,468.9919739,0.3515608609,
468.0014343,0.3302850723,468.0014343,0.2866190076,468.0014343,0.3995528519,468.0014343,0.3591774106,
467.0107117,0.3360703588,467.0107117,0.2921150029,467.0107117,0.4070746899,467.0107117,0.3662693501,
465.9815674,0.3434147239,465.9815674,0.2986269295,465.9815674,0.4155594707,465.9815674,0.3739845157,
464.990448,0.3499585092,464.990448,0.3045859337,464.990448,0.4241053164,464.990448,0.382114321,
463.9990845,0.3557038903,463.9990845,0.3101862967,463.9990845,0.432107538,463.9990845,0.3886978328,
463.0075989,0.3630642593,463.0075989,0.3167723715,463.0075989,0.4410364628,463.0075989,0.3967404366,
462.0158997,0.3688660264,462.0158997,0.3225907087,462.0158997,0.449323386,462.0158997,0.4043687582,
460.9858704,0.3759827614,460.9858704,0.3294056654,460.9858704,0.4581682682,460.9858704,0.4128661156,
459.9938049,0.3830042183,459.9938049,0.3358799219,459.9938049,0.4671360254,459.9938049,0.4207210839,
459.0015259,0.3894684911,459.0015259,0.3413915634,459.0015259,0.4748856723,459.0015259,0.4272061586,
458.0090637,0.3964704275,458.0090637,0.3477126062,458.0090637,0.4839813113,458.0090637,0.4362276495,
457.0163879,0.4020436406,457.0163879,0.3533978462,457.0163879,0.4921244681,457.0163879,0.4436525106,
455.9854126,0.4101606607,455.9854126,0.3598694205,455.9854126,0.5014573336,455.9854126,0.452013433,
454.9923706,0.4175027907,454.9923706,0.3669363856,454.9923706,0.5106703639,454.9923706,0.4610240459,
453.999176,0.423073262,453.999176,0.3728731573,453.999176,0.5189670324,453.999176,0.467279911,
453.0057983,0.4309504032,453.0057983,0.3791776896,453.0057983,0.5278419852,453.0057983,0.4758000076,
452.0121765,0.437336117,452.0121765,0.3853820562,452.0121765,0.5359210968,452.0121765,0.4828323126,
451.0184326,0.4437764287,451.0184326,0.3917751014,451.0184326,0.5449048281,451.0184326,0.4908806086,
449.9862671,0.4508007467,449.9862671,0.3982861638,449.9862671,0.5548453927,449.9862671,0.4994930327,
448.9920959,0.4583703279,448.9920959,0.4050506353,448.9920959,0.5637311339,448.9920959,0.5074535012,
447.9977417,0.4647996724,447.9977417,0.4110177755,447.9977417,0.5720949173,447.9977417,0.5161845088,
447.0032959,0.4712945819,447.0032959,0.4173323512,447.0032959,0.5808330178,447.0032959,0.5232584476,
446.008606,0.4780052006,446.008606,0.4233949482,446.008606,0.5888017416,446.008606,0.5315884948,
445.0137329,0.4851050675,445.0137329,0.4292526841,445.0137329,0.5971077085,445.0137329,0.5384575129,
444.0186462,0.4914911091,444.0186462,0.4356132746,444.0186462,0.6061316133,444.0186462,0.5468851924,
442.985199,0.498786658,442.985199,0.4421313405,442.985199,0.6153134704,442.985199,0.5547792912,
441.9897461,0.5055263638,441.9897461,0.4486822188,441.9897461,0.6238310933,441.9897461,0.5620988607,
440.9941711,0.5114989281,440.9941711,0.453928113,440.9941711,0.6313506365,440.9941711,0.5693414807,
439.9983826,0.5176377892,439.9983826,0.4591189623,439.9983826,0.6386288404,439.9983826,0.5773088932,
439.0024414,0.5230631828,439.0024414,0.4651616216,439.0024414,0.6469523311,439.0024414,0.5838630795,
438.0062866,0.5298486948,438.0062866,0.4713466763,438.0062866,0.6552091241,438.0062866,0.5907812715,
437.0099182,0.5359116793,437.0099182,0.4760353565,437.0099182,0.6626780033,437.0099182,0.5977630019,
436.0134277,0.5415500998,436.0134277,0.4824177623,436.0134277,0.669629693,436.0134277,0.6044655442,
435.0168152,0.5471500158,435.0168152,0.4878475368,435.0168152,0.6771718264,435.0168152,0.6113602519,
433.9815674,0.5530590415,433.9815674,0.4923518598,433.9815674,0.6846989393,433.9815674,0.618083179,
432.9845581,0.558591783,432.9845581,0.4976835251,432.9845581,0.6924026012,432.9845581,0.6250244975,
431.9873657,0.5643325448,431.9873657,0.504145503,431.9873657,0.6998056769,431.9873657,0.6308300495,
430.9900208,0.5705725551,430.9900208,0.5078885555,430.9900208,0.7065719962,430.9900208,0.637368679,
429.9924316,0.5741852522,429.9924316,0.5126395822,429.9924316,0.7136897445,429.9924316,0.6427244544,
428.9946899,0.5801224113,428.9946899,0.5174036622,428.9946899,0.7195527554,428.9946899,0.6486617923,
427.9967957,0.5847699046,427.9967957,0.5223507881,427.9967957,0.7253053188,427.9967957,0.6545442343,
426.9986877,0.5904724598,426.9986877,0.5277792215,426.9986877,0.7341233492,426.9986877,0.6610358953,
426.0004272,0.5942366719,426.0004272,0.5312965512,426.0004272,0.7390255928,426.0004272,0.6663417816,
425.0020142,0.5991327167,425.0020142,0.5352514982,425.0020142,0.7439771295,425.0020142,0.6716611981,
424.003418,0.6036443114,424.003418,0.539385438,424.003418,0.749597609,424.003418,0.6764201522,
423.0046082,0.6073477864,423.0046082,0.5429124236,423.0046082,0.7544376254,423.0046082,0.680537343,
422.0056763,0.6123100519,422.0056763,0.5468716025,422.0056763,0.7608234286,422.0056763,0.6856943369,
421.0065918,0.6158943772,421.0065918,0.5511968136,421.0065918,0.7649782896,421.0065918,0.6905076504,
420.0072632,0.619443953,420.0072632,0.5528472662,420.0072632,0.7690346241,420.0072632,0.6946347952,
419.007782,0.6215596199,419.007782,0.5556845069,419.007782,0.7733713984,419.007782,0.6976501942,
418.0081177,0.6252211332,418.0081177,0.5584746599,418.0081177,0.777135253,418.0081177,0.7008166909,
417.0083923,0.6290824413,417.0083923,0.5626710057,417.0083923,0.780569613,417.0083923,0.7052119374,
416.0083923,0.631303966,416.0083923,0.5640716553,416.0083923,0.78434515,416.0083923,0.7081958055,
415.0082397,0.6339281201,415.0082397,0.5674780011,415.0082397,0.7869694233,415.0082397,0.7104326487,
414.0079041,0.6360541582,414.0079041,0.569213748,414.0079041,0.7898049355,414.0079041,0.7133491635,
413.0074158,0.6377853155,413.0074158,0.5708215237,413.0074158,0.7926770449,413.0074158,0.7152749896,
412.0067749,0.6399704814,412.0067749,0.5724496245,412.0067749,0.7945733666,412.0067749,0.7176464796,
411.0059509,0.6428521276,411.0059509,0.5734694004,411.0059509,0.7965506911,411.0059509,0.7197259665,
410.0049133,0.6430330276,410.0049133,0.5752364993,410.0049133,0.7987300754,410.0049133,0.7206718922,
409.0038147,0.6437269449,409.0038147,0.5764401555,409.0038147,0.7999659181,409.0038147,0.7220357656,
408.0025024,0.6445230246,408.0025024,0.5773695111,408.0025024,0.8009638786,408.0025024,0.7237257361,
407.0009766,0.6452655792,407.0009766,0.5779842138,407.0009766,0.8028324246,407.0009766,0.7248069048,
405.9993286,0.6468785405,405.9993286,0.5792713165,405.9993286,0.802804172,405.9993286,0.7260032892,
404.9975586,0.6462247968,404.9975586,0.5791727901,404.9975586,0.8034230471,404.9975586,0.7251919508,
403.9955139,0.6476183534,403.9955139,0.580427289,403.9955139,0.804050684,403.9955139,0.7260998487,
402.9933777,0.6467777491,402.9933777,0.5804302096,402.9933777,0.8039485812,402.9933777,0.7271725535,
401.9910889,0.6491898298,401.9910889,0.5808781981,401.9910889,0.8042181134,401.9910889,0.7273925543,
400.9886169,0.647571981,400.9886169,0.5810161233,400.9886169,0.804746449,400.9886169,0.7268112898,
399.9859619,0.6483898163,399.9859619,0.5804468393,399.9859619,0.8035809994,399.9859619,0.7274847031,
398.9831543,0.6485293508,398.9831543,0.5814287066,398.9831543,0.8034462333,398.9831543,0.727640748,
398.0187683,0.6490494609,398.0187683,0.582516253,398.0187683,0.8032010198,398.0187683,0.7273766994,
397.015625,0.6489548683,397.015625,0.5825696588,397.015625,0.8031714559,397.015625,0.728446722,
396.0123596,0.6503499746,396.0123596,0.5839321017,396.0123596,0.8037827611,396.0123596,0.7288284898,
395.0088806,0.6509773731,395.0088806,0.5848704576,395.0088806,0.8025921583,395.0088806,0.7289891243,
394.0052795,0.6526166201,394.0052795,0.5859940648,394.0052795,0.804739356,394.0052795,0.7305696607,
393.0015259,0.6537815332,393.0015259,0.5889300704,393.0015259,0.805419445,393.0015259,0.732414186,
391.9975891,0.6557528973,391.9975891,0.5913948417,391.9975891,0.8072760701,391.9975891,0.7361041903,
390.9935303,0.6584570408,390.9935303,0.5955706835,390.9935303,0.8093015552,390.9935303,0.738876462,
389.9892578,0.6638242602,389.9892578,0.6003682017,389.9892578,0.8130934238,389.9892578,0.7443357706,
388.9848633,0.6684815288,388.9848633,0.606434226,388.9848633,0.8178638816,388.9848633,0.7497882843,
388.0189209,0.674164772,388.0189209,0.6136646271,388.0189209,0.8236050606,388.0189209,0.7576333284,
387.0142212,0.6813876629,387.0142212,0.6222438216,387.0142212,0.8320713639,387.0142212,0.7659995556,
386.0093384,0.6909837723,386.0093384,0.6321992278,386.0093384,0.8411259651,386.0093384,0.7769092321,
385.0043335,0.7027645707,385.0043335,0.6451064348,385.0043335,0.8541647196,385.0043335,0.7903094292,
383.999115,0.7171762586,383.999115,0.6623925567,383.999115,0.8684228063,383.999115,0.8079648614,
382.9937744,0.7315878868,382.9937744,0.6773387194,382.9937744,0.8833882213,382.9937744,0.826408267,
381.9882507,0.7499480247,381.9882507,0.6988899708,381.9882507,0.9030635357,381.9882507,0.8481224775,
380.9826355,0.7738291621,380.9826355,0.7240620852,380.9826355,0.9274101853,380.9826355,0.8749134541,
380.0155029,0.799002707,380.0155029,0.7510855198,380.0155029,0.9560456872,380.0155029,0.9069873691,
379.0095215,0.8311308622,379.0095215,0.7872750163,379.0095215,0.9905043244,379.0095215,0.9438962936,
378.0034485,0.8673417568,378.0034485,0.825374186,378.0034485,1.029358864,378.0034485,0.9880647063,
376.9971313,0.906637311,376.9971313,0.8676872849,376.9971313,1.07100153,376.9971313,1.033912063,
375.9907227,0.9479364753,375.9907227,0.9155324697,375.9907227,1.118274093,375.9907227,1.084514022,
374.9841614,0.9993821979,374.9841614,0.9691341519,374.9841614,1.175663829,374.9841614,1.145781994,
374.0161438,1.055026293,374.0161438,1.030852199,374.0161438,1.237615943,374.0161438,1.212965131,
373.0092468,1.115918159,373.0092468,1.097300291,373.0092468,1.308375716,373.0092468,1.286630034,
372.0022278,1.18773067,372.0022278,1.174126148,372.0022278,1.391009569,372.0022278,1.375350952,
370.9950562,1.263105273,370.9950562,1.256310463,370.9950562,1.46950531,370.9950562,1.465872526,
369.9877319,1.354913831,369.9877319,1.349741697,369.9877319,1.57051301,369.9877319,1.575361848,
369.0190125,1.453545213,369.0190125,1.456224442,369.0190125,1.685669422,369.0190125,1.689508319,
368.0113831,1.554371953,368.0113831,1.570544481,368.0113831,1.805557251,368.0113831,1.822568536,
367.0036011,1.672323585,367.0036011,1.698693395,367.0036011,1.944438338,367.0036011,1.959593534,
365.9956665,1.800342321,365.9956665,1.831781268,365.9956665,2.089349031,365.9956665,2.106110334,
364.9876099,1.933079243,364.9876099,1.982669711,364.9876099,2.257957458,364.9876099,2.316409111,
364.018158,2.086361647,364.018158,2.150618792,364.018158,2.416794062,364.018158,2.457250595,
363.0097656,2.266693592,363.0097656,2.335317135,363.0097656,2.590545893,363.0097656,2.682751179,
362.0012512,2.438122511,362.0012512,2.508635521,362.0012512,2.84428525,362.0012512,2.894787073,
360.9926147,2.60249424,360.9926147,2.685269833,360.9926147,3.00207448,360.9926147,3.024431467,
359.9837952,2.826286793,359.9837952,2.920094013,359.9837952,3.501079798,359.9837952,3.378136873,
359.0136108,3.054134846,359.0136108,3.116719007,359.0136108,3.733598948,359.0136108,3.767811298,
358.0045471,3.288743496,358.0045471,3.26951766,358.0045471,4.085767269,358.0045471,3.783207178,
356.9953003,3.52816081,356.9953003,3.479180813,356.9953003,4.738229275,356.9953003,3.644621849,
355.9859009,4.140393734,355.9859009,10,355.9859009,10,355.9859009,10,
355.0152283,3.963512897,355.0152283,4.44344759,355.0152283,10,355.0152283,10,
354.0055542,3.848721743,354.0055542,4.076684475,354.0055542,10,354.0055542,3.746083975,
352.995697,10,352.995697,4.577597141,352.995697,10,352.995697,10,
351.9857788,3.977710962,351.9857788,4.176468372,351.9857788,10,351.9857788,10,
351.0144958,4.245749474,351.0144958,10,351.0144958,10,351.0144958,10,
350.0042419,10,350.0042419,10,350.0042419,10,350.0042419,10,
348.993866,10,348.993866,10,348.993866,10,348.993866,4.327436447,
347.9833374,3.914779663,347.9833374,10,347.9833374,10,347.9833374,10,
347.0115356,10,347.0115356,3.825716257,347.0115356,10,347.0115356,10,
346.0007629,10,346.0007629,4.331057072,346.0007629,10,346.0007629,10,
344.9898071,10,344.9898071,4.271471977,344.9898071,10,344.9898071,10,
344.0175781,10,344.0175781,10,344.0175781,10,344.0175781,3.699893475,
343.0063782,10,343.0063782,10,343.0063782,10,343.0063782,3.803509235,
341.9950256,10,341.9950256,10,341.9950256,10,341.9950256,10,
340.9835205,3.894411564,340.9835205,10,340.9835205,10,340.9835205,10,
340.0107727,10,340.0107727,4.858727455,340.0107727,10,340.0107727,10,
338.9990234,10,338.9990234,10,338.9990234,10,338.9990234,10,
337.9871216,10,337.9871216,4.202340603,337.9871216,10,337.9871216,10,
337.0139771,10,337.0139771,10,337.0139771,10,337.0139771,10,
336.0018005,3.606897831,336.0018005,10,336.0018005,10,336.0018005,10,
334.9894714,5.112928391,334.9894714,4.101817131,334.9894714,10,334.9894714,10,
334.0159607,4.506613255,334.0159607,10,334.0159607,10,334.0159607,10,
333.0033875,10,333.0033875,4.565917015,333.0033875,10,333.0033875,10,
331.9906616,10,331.9906616,3.93130374,331.9906616,10,331.9906616,5.122663498,
331.0167542,10,331.0167542,3.977459431,331.0167542,10,331.0167542,3.711742163,
330.0037842,4.069124699,330.0037842,4.702009201,330.0037842,10,330.0037842,10,
328.9906311,4.911422253,328.9906311,3.821106672,328.9906311,10,328.9906311,10,
328.0163574,10,328.0163574,10,328.0163574,10,328.0163574,10,
327.0029602,10,327.0029602,10,327.0029602,10,327.0029602,10,
325.9894714,10,325.9894714,10,325.9894714,10,325.9894714,10,
325.014801,10,325.014801,10,325.014801,10,325.014801,10,
324.0010376,10,324.0010376,10,324.0010376,10,324.0010376,10,
322.9871216,10,322.9871216,5.496794701,322.9871216,10,322.9871216,10,
322.0121155,10,322.0121155,10,322.0121155,10,322.0121155,10,
320.9979248,10,320.9979248,10,320.9979248,10,320.9979248,3.901831865,
319.9836121,10,319.9836121,10,319.9836121,10,319.9836121,10,
319.0082092,10,319.0082092,10,319.0082092,10,319.0082092,10,
317.9936523,4.356928349,317.9936523,3.957556248,317.9936523,5.111309528,317.9936523,10,
317.0180054,10,317.0180054,10,317.0180054,10,317.0180054,10,
316.0032043,10,316.0032043,4.423039436,316.0032043,10,316.0032043,10,
314.9882507,10,314.9882507,10,314.9882507,10,314.9882507,10,
314.0122375,10,314.0122375,4.189796448,314.0122375,10,314.0122375,10,
312.9970093,10,312.9970093,10,312.9970093,10,312.9970093,10,
311.98172,10,311.98172,10,311.98172,10,311.98172,10,
311.0053406,4.788068771,311.0053406,10,311.0053406,10,311.0053406,4.611945629,
309.9897461,4.407124996,309.9897461,10,309.9897461,10,309.9897461,10,
309.0131226,4.151253223,309.0131226,4.323166847,309.0131226,10,309.0131226,10,
307.997345,10,307.997345,3.927046776,307.997345,10,307.997345,10,
306.9813843,10,306.9813843,10,306.9813843,10,306.9813843,10,
306.004364,10,306.004364,10,306.004364,10,306.004364,4.154585361,
304.9881897,10,304.9881897,10,304.9881897,10,304.9881897,10,
304.0110168,10,304.0110168,10,304.0110168,4.232897282,304.0110168,10,
302.9945679,10,302.9945679,10,302.9945679,10,302.9945679,10,
302.0171204,10,302.0171204,4.221161366,302.0171204,4.712516308,302.0171204,10,
301.0004883,10,301.0004883,10,301.0004883,10,301.0004883,10,
299.9836426,10,299.9836426,10,299.9836426,10,299.9836426,10,
299.0058594,10,299.0058594,10,299.0058594,10,299.0058594,10,
297.9888306,10,297.9888306,5.285805225,297.9888306,10,297.9888306,4.339797497,
297.0107727,10,297.0107727,5.001126766,297.0107727,10,297.0107727,10,
295.9935303,10,295.9935303,10,295.9935303,10,295.9935303,10,
295.0152588,10,295.0152588,10,295.0152588,10,295.0152588,10,
293.9977722,10,293.9977722,10,293.9977722,10,293.9977722,10,
293.0192566,10,293.0192566,10,293.0192566,10,293.0192566,10,
292.0015259,10,292.0015259,10,292.0015259,10,292.0015259,10,
290.9836426,10,290.9836426,10,290.9836426,10,290.9836426,10,
290.0048523,3.861899853,290.0048523,5.452773571,290.0048523,4.39962101,290.0048523,3.895553589,
288.9867554,4.642323971,288.9867554,4.04334259,288.9867554,4.40940237,288.9867554,10,
288.0076904,10,288.0076904,10,288.0076904,10,288.0076904,10,
286.9893799,10,286.9893799,10,286.9893799,10,286.9893799,4.758547306,
286.0101013,10,286.0101013,10,286.0101013,10,286.0101013,10,
284.9915771,10,284.9915771,10,284.9915771,10,284.9915771,10,
284.012085,10,284.012085,10,284.012085,10,284.012085,10,
282.9932861,10,282.9932861,10,282.9932861,10,282.9932861,10,
282.0135803,10,282.0135803,10,282.0135803,10,282.0135803,10,
280.9945679,10,280.9945679,3.977648735,280.9945679,10,280.9945679,4.049660683,
280.0146484,4.043700218,280.0146484,4.170910835,280.0146484,10,280.0146484,4.007065773,
278.9954224,10,278.9954224,3.914444923,278.9954224,10,278.9954224,4.564033985,
278.0153198,10,278.0153198,10,278.0153198,10,278.0153198,10,
276.9958496,4.243845463,276.9958496,4.189689159,276.9958496,4.723295212,276.9958496,5.135505676,
276.0154724,4.206717491,276.0154724,10,276.0154724,5.387296677,276.0154724,4.358700752,
274.9958191,4.675809383,274.9958191,5.343726635,274.9958191,4.892785549,274.9958191,4.443192005,
274.0152588,3.822562933,274.0152588,3.997626781,274.0152588,10,274.0152588,10,
272.9953613,10,272.9953613,10,272.9953613,10,272.9953613,10,
272.0145569,10,272.0145569,10,272.0145569,10,272.0145569,10,
270.9944763,4.631634235,270.9944763,4.064338207,270.9944763,4.240166664,270.9944763,4.615746498,
270.0134888,4.438855171,270.0134888,4.33664465,270.0134888,10,270.0134888,10,
268.9931641,10,268.9931641,4.793087482,268.9931641,10,268.9931641,10,
268.0119629,10,268.0119629,4.058207989,268.0119629,4.431262493,268.0119629,10,
266.9914551,4.92249012,266.9914551,4.023434639,266.9914551,10,266.9914551,10,
266.0100403,10,266.0100403,4.023435593,266.0100403,10,266.0100403,4.184699535,
264.9892883,10,264.9892883,10,264.9892883,10,264.9892883,10,
264.0076599,10,264.0076599,4.471999168,264.0076599,10,264.0076599,10,
262.9866943,10,262.9866943,10,262.9866943,10,262.9866943,10,
262.0048828,10,262.0048828,10,262.0048828,10,262.0048828,10,
260.9837341,4.090548992,260.9837341,4.366299152,260.9837341,10,260.9837341,10,
260.001709,4.386063576,260.001709,4.062321186,260.001709,10,260.001709,4.64585638,
259.0196533,10,259.0196533,10,259.0196533,10,259.0196533,10,
257.9981384,10,257.9981384,10,257.9981384,10,257.9981384,10,
257.0158386,10,257.0158386,10,257.0158386,10,257.0158386,10,
255.9941406,10,255.9941406,4.270916939,255.9941406,10,255.9941406,4.258354664,
255.011673,10,255.011673,4.434531689,255.011673,10,255.011673,4.210290432,
253.9897461,10,253.9897461,10,253.9897461,10,253.9897461,10,
253.0070496,10,253.0070496,10,253.0070496,10,253.0070496,10,
251.9849548,10,251.9849548,10,251.9849548,10,251.9849548,10,
251.0020752,10,251.0020752,10,251.0020752,10,251.0020752,10,
250.0190887,10,250.0190887,10,250.0190887,10,250.0190887,10,
248.9966736,10,248.9966736,4.495716095,248.9966736,10,248.9966736,10,
248.0135193,4.436337948,248.0135193,3.990349054,248.0135193,10,248.0135193,4.245745182,
246.9909363,5.154467583,246.9909363,4.185477734,246.9909363,10,246.9909363,10,
246.0075531,4.826218128,246.0075531,10,246.0075531,10,246.0075531,10,
244.9847412,10,244.9847412,10,244.9847412,10,244.9847412,10,
244.0011902,10,244.0011902,10,244.0011902,10,244.0011902,10,
243.0175476,10,243.0175476,4.566446304,243.0175476,10,243.0175476,10,
241.9944458,10,241.9944458,4.648526192,241.9944458,10,241.9944458,10,
241.0106201,10,241.0106201,10,241.0106201,10,241.0106201,10,
239.9873657,10,239.9873657,10,239.9873657,10,239.9873657,10,
239.0033417,10,239.0033417,10,239.0033417,10,239.0033417,10,
238.0192261,10,238.0192261,4.697974205,238.0192261,10,238.0192261,4.667356491,
236.9956665,10,236.9956665,4.281179905,236.9956665,5.341163635,236.9956665,10,
236.0113678,10,236.0113678,10,236.0113678,10,236.0113678,10,
234.9876099,10,234.9876099,10,234.9876099,10,234.9876099,10,
234.0031586,10,234.0031586,10,234.0031586,4.397907257,234.0031586,10,
233.0186005,10,233.0186005,10,233.0186005,10,233.0186005,10,
231.9945526,4.565980434,231.9945526,10,231.9945526,10,231.9945526,10,
231.0098114,10,231.0098114,10,231.0098114,10,231.0098114,10,
229.9855957,10,229.9855957,10,229.9855957,10,229.9855957,10,
229.0006714,10,229.0006714,10,229.0006714,10,229.0006714,4.336686611,
228.0157013,3.941204548,228.0157013,3.818127871,228.0157013,4.269264221,228.0157013,3.925057888,
226.9911957,4.020704746,226.9911957,3.926994562,226.9911957,4.444366932,226.9911957,4.054482937,
226.0059967,4.599000931,226.0059967,4.172404766,226.0059967,10,226.0059967,4.405518532,
224.9813385,3.948395252,224.9813385,3.924430609,224.9813385,4.192975998,224.9813385,4.067996979,
223.9959869,4.233839035,223.9959869,4.04111433,223.9959869,4.299647808,223.9959869,3.776780367,
223.0105438,3.836497545,223.0105438,3.895491123,223.0105438,4.369334221,223.0105438,3.868365288,
221.9855957,4.473795414,221.9855957,4.370467663,221.9855957,4.626366615,221.9855957,4.374392509,
221,10,221,4.585333824,221,10,221,4.201134682,
220.0142975,5.123680115,220.0142975,10,220.0142975,10,220.0142975,5.13203907,
218.9891205,4.775263309,218.9891205,10,218.9891205,10,218.9891205,5.087992668,
218.0032501,3.672803164,218.0032501,3.658135891,218.0032501,3.773035049,218.0032501,3.691925287,
217.0173187,10,217.0173187,10,217.0173187,10,217.0173187,10,
215.9918518,3.852401495,215.9918518,3.462020397,215.9918518,3.954808474,215.9918518,3.873208761,
215.0057373,10,215.0057373,4.444160938,215.0057373,10,215.0057373,3.972083569,
214.0195618,3.801625967,214.0195618,4.024686813,214.0195618,3.91488266,214.0195618,4.258980274,
212.9938354,10,212.9938354,10,212.9938354,10,212.9938354,10,
212.0074921,3.759566069,212.0074921,3.55350256,212.0074921,3.647943974,212.0074921,3.542357922,
210.9815826,3.835261822,210.9815826,3.480507374,210.9815826,4.02580595,210.9815826,3.999814749,
209.9950714,3.598981142,209.9950714,3.560864449,209.9950714,3.617188931,209.9950714,3.68320179,
209.0084534,4.035803795,209.0084534,4.075872898,209.0084534,4.778224468,209.0084534,3.494021654,
207.9823303,10,207.9823303,10,207.9823303,10,207.9823303,10,
206.995575,10,206.995575,4.091732025,206.995575,10,206.995575,10,
206.0087585,3.927867413,206.0087585,4.472804546,206.0087585,3.750186443,206.0087585,4.244771004,
204.9823456,3.812902451,204.9823456,3.461877823,204.9823456,3.865455627,204.9823456,3.562634945,
203.9953613,3.849783659,203.9953613,3.584201574,203.9953613,3.755258083,203.9953613,4.158925056,
203.0082855,3.634687662,203.0082855,3.824521303,203.0082855,10,203.0082855,3.531086683,
201.9816742,10,201.9816742,3.497353554,201.9816742,3.54250145,201.9816742,3.584204197,
200.9944458,3.669569731,200.9944458,3.729551792,200.9944458,3.584959984,200.9944458,3.869517088,
200.0071564,4.15070343,200.0071564,3.769440413,200.0071564,3.912536144,200.0071564,3.715231657,

LN46_0.75_1_0.5mL_s_0.5mL_Ti_2h,
LN46_0.75_1_0.5mL_s_0.5mL_Ti_2h
Collection Time: 2/1/2024 12:51:04 PM
Operator Name  :
Scan Version 5.0.0.999
Parameter List :
Instrument  Cary 60
Instrument Version  2.00
Start (nm)  800.0
Stop (nm)  200.0
X Mode  Nanometers
Y Mode  Abs
UV-Vis Scan Rate (nm/min)  600.00
UV-Vis Data Interval (nm)  1.00
UV-Vis Ave. Time (sec)  0.1000
Beam Mode  Dual Beam
Baseline Correction  On
Baseline Type  Baseline correction
Baseline File Name
Baseline Std Ref File Name
Cycle Mode  Off
Method Log     :
Method Name    :
Date/Time stamp: 2/1/2024 9:15:53 AM
Method Modifications:
UVVIS SAT Changed: 2/1/2024 11:03:06 AM, Old:0.0125, New:0.1000
Common SAT Changed: 2/1/2024 11:03:06 AM, Old:0.0125, New:0.1000
Common Interval nm Changed: 2/1/2024 11:03:08 AM, Old:     5.00, New:     1.00
Baseline Correction Changed: 2/1/2024 11:03:08 AM, Old:0, New:1
End Method Modifications
<Current Wavelength> , 207.0

LN46_0.75_2_0.5mL_s_0.5mL_Ti_2h,
LN46_0.75_2_0.5mL_s_0.5mL_Ti_2h
Collection Time: 2/1/2024 12:53:14 PM
Operator Name  :
Scan Version 5.0.0.999
Parameter List :
Instrument  Cary 60
Instrument Version  2.00
Start (nm)  800.0
Stop (nm)  200.0
X Mode  Nanometers
Y Mode  Abs
UV-Vis Scan Rate (nm/min)  600.00
UV-Vis Data Interval (nm)  1.00
UV-Vis Ave. Time (sec)  0.1000
Beam Mode  Dual Beam
Baseline Correction  On
Baseline Type  Baseline correction
Baseline File Name
Baseline Std Ref File Name
Cycle Mode  Off
Method Log     :
Method Name    :
Date/Time stamp: 2/1/2024 9:15:53 AM
Method Modifications:
UVVIS SAT Changed: 2/1/2024 11:03:06 AM, Old:0.0125, New:0.1000
Common SAT Changed: 2/1/2024 11:03:06 AM, Old:0.0125, New:0.1000
Common Interval nm Changed: 2/1/2024 11:03:08 AM, Old:     5.00, New:     1.00
Baseline Correction Changed: 2/1/2024 11:03:08 AM, Old:0, New:1
End Method Modifications
<Current Wavelength> , 206.0

LN46_0.75_3_0.5mL_s_0.5mL_Ti_2h,
LN46_0.75_3_0.5mL_s_0.5mL_Ti_2h
Collection Time: 2/1/2024 12:55:29 PM
Operator Name  :
Scan Version 5.0.0.999
Parameter List :
Instrument  Cary 60
Instrument Version  2.00
Start (nm)  800.0
Stop (nm)  200.0
X Mode  Nanometers
Y Mode  Abs
UV-Vis Scan Rate (nm/min)  600.00
UV-Vis Data Interval (nm)  1.00
UV-Vis Ave. Time (sec)  0.1000
Beam Mode  Dual Beam
Baseline Correction  On
Baseline Type  Baseline correction
Baseline File Name
Baseline Std Ref File Name
Cycle Mode  Off
Method Log     :
Method Name    :
Date/Time stamp: 2/1/2024 9:15:53 AM
Method Modifications:
UVVIS SAT Changed: 2/1/2024 11:03:06 AM, Old:0.0125, New:0.1000
Common SAT Changed: 2/1/2024 11:03:06 AM, Old:0.0125, New:0.1000
Common Interval nm Changed: 2/1/2024 11:03:08 AM, Old:     5.00, New:     1.00
Baseline Correction Changed: 2/1/2024 11:03:08 AM, Old:0, New:1
End Method Modifications
<Current Wavelength> , 209.0

LN46_0.75_4_0.5mL_s_0.5mL_Ti_2h,
LN46_0.75_4_0.5mL_s_0.5mL_Ti_2h
Collection Time: 2/1/2024 12:57:50 PM
Operator Name  :
Scan Version 5.0.0.999
Parameter List :
Instrument  Cary 60
Instrument Version  2.00
Start (nm)  800.0
Stop (nm)  200.0
X Mode  Nanometers
Y Mode  Abs
UV-Vis Scan Rate (nm/min)  600.00
UV-Vis Data Interval (nm)  1.00
UV-Vis Ave. Time (sec)  0.1000
Beam Mode  Dual Beam
Baseline Correction  On
Baseline Type  Baseline correction
Baseline File Name
Baseline Std Ref File Name
Cycle Mode  Off
Method Log     :
Method Name    :
Date/Time stamp: 2/1/2024 9:15:53 AM
Method Modifications:
UVVIS SAT Changed: 2/1/2024 11:03:06 AM, Old:0.0125, New:0.1000
Common SAT Changed: 2/1/2024 11:03:06 AM, Old:0.0125, New:0.1000
Common Interval nm Changed: 2/1/2024 11:03:08 AM, Old:     5.00, New:     1.00
Baseline Correction Changed: 2/1/2024 11:03:08 AM, Old:0, New:1
End Method Modifications
<Current Wavelength> , 207.0

