LN46_0.75_1_0.5mL_s_0.5mL_Ti_2mL_H2O_DF6_6h,,LN46_0.75_2_0.5mL_s_0.5mL_Ti_2mL_H2O_DF6_6h,,LN46_0.75_3_0.5mL_s_0.5mL_Ti_2mL_H2O_DF6_6h,,LN46_0.75_4_0.5mL_s_0.5mL_Ti_2mL_H2O_DF6_6h,,
Wavelength (nm),Abs,Wavelength (nm),Abs,Wavelength (nm),Abs,Wavelength (nm),Abs,
800.0109253,-0.001408756827,800.0109253,-0.0005988471094,800.0109253,-0.0008416169439,800.0109253,-0.00067013636,
799.007019,-0.0007674617227,799.007019,0.0002847095311,799.007019,-0.0006293493789,799.007019,-0.0001162124463,
798.0026855,-0.0004531303712,798.0026855,0.000850487384,798.0026855,-5.389124271E-005,798.0026855,0.0005571903312,
796.9979248,-0.0008100960404,796.9979248,0.0001740144507,796.9979248,-0.001140331617,796.9979248,3.085716889E-005,
795.9926758,-0.001313794521,795.9926758,-0.0004222019343,795.9926758,-0.001422276953,795.9926758,-0.0001058089474,
794.9871826,-0.0009707253193,794.9871826,-6.885121547E-005,794.9871826,-0.001042366843,794.9871826,7.520525105E-005,
794.0158691,-0.0008355713217,794.0158691,0.0002168232168,794.0158691,-0.000539335655,794.0158691,-0.0002944824519,
793.0095215,-0.0008562398143,793.0095215,0.0009468010394,793.0095215,-0.0006014321116,793.0095215,0.0001147417643,
792.0026855,-0.0008253917331,792.0026855,0.0001307697094,792.0026855,-0.0008449755842,792.0026855,0.0007422669441,
790.9956055,-0.0008113879594,790.9956055,0.00054114667,790.9956055,-0.0005200482556,790.9956055,-0.0001074652464,
789.9880371,-0.0007322658785,789.9880371,0.00017950451,789.9880371,-0.00142263819,789.9880371,0.0002278303873,
789.0148926,-0.001204510685,789.0148926,-0.0002172842214,789.0148926,-0.000845853996,789.0148926,-0.0006428937777,
788.0064697,-0.0007396049914,788.0064697,-0.0002033643104,788.0064697,-0.0009700538358,788.0064697,-0.0001812674891,
786.9977417,-0.0006717905053,786.9977417,0.0002384752297,786.9977417,-0.001331756357,786.9977417,-0.0003555793664,
785.9886475,-0.001266408945,785.9886475,-1.951758168E-005,785.9886475,-0.001355446293,785.9886475,-0.0001857179886,
785.013855,-0.001323704608,785.013855,7.1704726E-006,785.013855,-0.0006611935678,785.013855,-0.0001550810266,
784.0039063,-0.001550232642,784.0039063,0.0003971687693,784.0039063,-0.001333304797,784.0039063,-0.0007756271516,
782.9935913,-0.0011768369,782.9935913,9.964652418E-005,782.9935913,-0.001024754485,782.9935913,-0.000489486556,
781.9829102,-0.000923922169,781.9829102,-4.555906344E-006,781.9829102,-0.0009819346014,781.9829102,-0.0003377323155,
781.0066528,-0.00115029735,781.0066528,0.0003927641374,781.0066528,-0.0007052338915,781.0066528,-4.229561091E-005,
779.9951782,-0.001185356057,779.9951782,0.0003184364759,779.9951782,-0.0008583582821,779.9951782,2.560197754E-005,
778.9832153,-0.001190260984,778.9832153,-4.560868183E-005,778.9832153,-0.001400138834,778.9832153,-0.0002529357735,
778.0058594,-0.001848408952,778.0058594,-0.000103428014,778.0058594,-0.001525418367,778.0058594,-0.0006365869194,
776.9931641,-0.001921142917,776.9931641,3.714795457E-005,776.9931641,-0.002310687909,776.9931641,-0.0004771268286,
776.0150757,-0.001501428196,776.0150757,-0.000234877516,776.0150757,-0.00136411679,776.0150757,-0.000811491278,
775.0015869,-0.00167376711,775.0015869,-0.000203623058,775.0015869,-0.001184633235,775.0015869,-0.000783379015,
773.987793,-0.001382799121,773.987793,-0.0001636720117,773.987793,-0.001430636505,773.987793,-0.0004269085766,
773.0085449,-0.0009898378048,773.0085449,0.0002249296376,773.0085449,-0.0009864802705,773.0085449,-0.0002829967125,
771.9938965,-0.001699552755,771.9938965,5.682341725E-005,771.9938965,-0.001246844069,771.9938965,-0.0004437693278,
771.013916,-0.00162007648,771.013916,-0.0005164802424,771.013916,-0.001472792937,771.013916,-0.0004892279976,
769.9984741,-0.001603931887,769.9984741,-0.000452199456,769.9984741,-0.001518659992,769.9984741,-0.000506293145,
768.9827881,-0.001363136224,768.9827881,0.0002337873157,768.9827881,-0.0009185493109,768.9827881,-5.870540917E-005,
768.0015869,-0.001119831577,768.0015869,0.0001281803416,768.0015869,-0.0009807981551,768.0015869,2.254726314E-005,
766.9850464,-0.002102228813,766.9850464,-0.0006124441279,766.9850464,-0.001615485875,766.9850464,-0.0007915958413,
766.0032959,-0.0008532945649,766.0032959,0.0002661893086,766.0032959,-0.0007965568802,766.0032959,-0.0003107792581,
764.9859619,-0.001335885492,764.9859619,-0.0001124858463,764.9859619,-0.001039319555,764.9859619,-0.0005229957169,
764.0033569,-0.001534395036,764.0033569,-0.0001699857676,764.0033569,-0.001685886527,764.0033569,-0.0005848876899,
762.9852905,-0.001343885437,762.9852905,6.857734115E-005,762.9852905,-0.001176114078,762.9852905,-0.0001078793139,
762.0020142,-0.001619405928,762.0020142,-0.0006676034536,762.0020142,-0.001425631111,762.0020142,-0.0008686920628,
760.9831543,-0.002067037858,760.9831543,-0.000277615909,760.9831543,-0.001680058893,760.9831543,-0.000809734338,
759.9991455,-0.001798813115,759.9991455,-0.0002610591764,759.9991455,-0.001680316753,759.9991455,-0.0009323429549,
759.0147095,-0.001512056333,759.0147095,-0.0003153836296,759.0147095,-0.001298464485,759.0147095,-0.000233842642,
757.994812,-0.001440285821,757.994812,-0.0002541258582,757.994812,-0.001421244815,757.994812,-0.0008277687011,
757.0096436,-0.001666546799,757.0096436,-0.0003625628015,757.0096436,-0.00151293329,757.0096436,-0.000704148435,
755.9889526,-0.001967374934,755.9889526,-0.000673858216,755.9889526,-0.00155394699,755.9889526,-0.0006680170191,
755.0030518,-0.001212254865,755.0030518,0.0001493100426,755.0030518,-0.001374696614,755.0030518,-0.000540421519,
754.0168457,-0.001424702234,754.0168457,0.000122198966,754.0168457,-0.001160159474,754.0168457,-0.0002305310045,
752.9949951,-0.001660048496,752.9949951,-0.0006248517311,752.9949951,-0.001407931093,752.9949951,-0.0005539686535,
752.0080566,-0.001871245913,752.0080566,-0.0006479081931,752.0080566,-0.001883669174,752.0080566,-0.001066072495,
750.9854736,-0.001897226088,750.9854736,-0.000620560837,750.9854736,-0.001617239672,750.9854736,-0.001143171685,
749.9978027,-0.00175890536,749.9978027,-0.0006652256125,749.9978027,-0.001686608535,749.9978027,-0.0006566962111,
749.0097046,-0.00205802056,749.0097046,-0.0003531998082,749.0097046,-0.00165772764,749.0097046,-0.0006826973986,
747.986084,-0.001978661632,747.986084,-0.0006623825175,747.986084,-0.001807062305,747.986084,-0.0009610138368,
746.9972534,-0.00164756726,746.9972534,-0.0007282344159,746.9972534,-0.001775353565,746.9972534,-0.0009437598637,
746.0082397,-0.001679697889,746.0082397,-0.0004647150345,746.0082397,-0.001506277942,746.0082397,-0.000679492543,
744.9833984,-0.001797627308,744.9833984,-0.0003842883452,744.9833984,-0.001830056077,744.9833984,-0.00137918652,
743.9935913,-0.001732710749,743.9935913,-0.0002317211329,743.9935913,-0.001592171262,743.9935913,-0.0009834326338,
743.003418,-0.001579430187,743.003418,-0.000185045239,743.003418,-0.001382128219,743.003418,-0.0004143918923,
742.0129395,-0.001962891081,742.0129395,-0.0009133313433,742.0129395,-0.002003449947,742.0129395,-0.001349717495,
740.9866333,-0.001801648759,740.9866333,-0.0006125992513,740.9866333,-0.00177463179,740.9866333,-0.001114461222,
739.9954224,-0.001208640984,739.9954224,-1.33569547E-005,739.9954224,-0.001266718609,739.9954224,-0.0004088058195,
739.0037842,-0.001800256665,739.0037842,-0.0005368536804,739.0037842,-0.00152804947,739.0037842,-0.001048409496,
738.0119019,-0.001929132035,738.0119019,-0.0006778384559,738.0119019,-0.001759008504,738.0119019,-0.001223664498,
736.9841919,-0.001698005595,736.9841919,-0.0001577721996,736.9841919,-0.001401377376,736.9841919,-0.0006717388169,
735.9914551,-0.002106350381,735.9914551,-0.0009137963061,735.9914551,-0.002054053126,735.9914551,-0.001181793516,
734.9985352,-0.001773445867,734.9985352,-0.0005593977403,734.9985352,-0.00154780806,734.9985352,-0.0008007943979,
734.005188,-0.001467168913,734.005188,-0.0005031904439,734.005188,-0.001373199979,734.005188,-0.001069635968,
733.0115356,-0.001562252408,733.0115356,-0.0003870298096,733.0115356,-0.001349562663,733.0115356,-0.0006336402148,
732.0174561,-0.001581699937,732.0174561,9.008410416E-006,732.0174561,-0.001338362927,732.0174561,-0.0006435140967,
730.9875488,-0.001592429122,730.9875488,-0.0004993120674,730.9875488,-0.001489458373,730.9875488,-0.0009731015307,
729.9928589,-0.001387650147,729.9928589,-0.0001732461096,729.9928589,-0.001683204784,729.9928589,-0.0007170703029,
728.9976807,-0.001675004838,728.9976807,-0.0002500382252,728.9976807,-0.00140622817,728.9976807,-0.0006230940344,
728.0023193,-0.001090861391,728.0023193,-0.0003565105144,728.0023193,-0.001218605088,728.0023193,-0.0003036397684,
727.0065308,-0.001630082726,727.0065308,-7.061118231E-005,727.0065308,-0.001235693227,727.0065308,-0.0005154977553,
726.010437,-0.00158144196,726.010437,-0.0004449071421,726.010437,-0.001662524068,726.010437,-0.0007448767428,
725.0139771,-0.001428417629,725.0139771,-7.345816266E-005,725.0139771,-0.001156080398,725.0139771,-0.0002931373019,
724.0171509,-0.000941383536,724.0171509,0.0002087946341,724.0171509,-0.0008397051133,724.0171509,-2.153659079E-005,
722.984436,-0.000891167263,722.984436,-0.0001710725483,722.984436,-0.000908165006,722.984436,-0.0001138315711,
721.9869385,-0.0006592809223,721.9869385,0.0003719853121,721.9869385,-0.0007822937914,721.9869385,0.0002881805412,
720.9890747,-0.0009624086088,720.9890747,-4.742050442E-005,720.9890747,-0.0008335044258,720.9890747,-0.0002023811103,
719.9909058,-0.0009323946433,719.9909058,-0.0001858214964,719.9909058,-0.001279417193,719.9909058,-0.0001702445297,
718.9923096,-0.001008381136,718.9923096,0.0001271445944,718.9923096,-0.0009956746362,718.9923096,-0.000367063185,
717.9935913,-0.000715674716,717.9935913,0.0002401328529,717.9935913,-0.001028989791,717.9935913,-0.0002731146233,
716.9943848,-0.000811491278,716.9943848,-1.547953252E-005,716.9943848,-0.001046601916,716.9943848,-0.0002785989491,
715.994812,-0.0009961394826,715.994812,0.0006086689536,715.994812,-0.001095250947,715.994812,0.000153297864,
714.9949341,-0.001100415015,714.9949341,0.0002589368669,714.9949341,-0.0009194275481,714.9949341,-8.272367268E-005,
713.994751,-0.0006954647833,713.994751,0.0002175224799,713.994751,-0.001084664254,713.994751,-0.0001947741112,
712.9941406,-0.0004996223142,712.9941406,0.0002680801554,712.9941406,-0.0006416530814,712.9941406,-0.0003459575528,
711.9932861,-0.000689830631,711.9932861,0.0005842249375,711.9932861,-0.000652405608,711.9932861,6.412428047E-005,
710.9921265,-0.0008314891602,710.9921265,0.0003945259959,710.9921265,-0.0009779054672,710.9921265,-2.4435667E-005,
709.9904785,-0.0009706736892,709.9904785,0.0003874786489,709.9904785,-0.0008811440202,709.9904785,0.0001440275228,
708.9885864,-0.0004876248713,708.9885864,0.0007894366281,708.9885864,-0.0005879381206,708.9885864,0.0001832077542,
707.9863892,-0.0005055174697,707.9863892,0.000657846278,707.9863892,-0.0009743929259,707.9863892,1.571306711E-005,
706.9838257,-0.000400633493,706.9838257,0.0001828710956,706.9838257,-0.0006987211527,706.9838257,-0.0001563231053,
706.0167236,-0.001067725127,706.0167236,0.0001717873674,706.0167236,-0.000821257825,706.0167236,-0.0001489223214,
705.0135498,-0.0006763393758,705.0135498,0.0003628398408,705.0135498,-0.0008482308476,705.0135498,-3.023375939E-005,
704.0099487,-0.0004341494641,704.0099487,0.0001543336693,704.0099487,-0.001037976705,704.0099487,3.220333747E-005,
703.0061035,-0.0005284768995,703.0061035,0.0004954811302,703.0061035,-0.0009143645875,703.0061035,0.0003433318343,
702.0018311,-0.0006572131533,702.0018311,0.0005463043926,702.0018311,-0.0004065300163,702.0018311,0.0001992900216,
700.9973755,-0.0005024665152,700.9973755,0.0006563944626,700.9973755,-0.000564516522,700.9973755,0.0003791101044,
699.9924927,-0.0006230422878,699.9924927,0.0005194536061,699.9924927,-0.0005493151257,699.9924927,0.0001360261813,
698.9872437,-0.0009674709872,698.9872437,7.202073175E-005,698.9872437,-0.001146114897,698.9872437,-0.0005845775013,
698.0175781,-8.567410259E-005,698.0175781,0.0007582921535,698.0175781,-0.0006869876524,698.0175781,0.0003547567467,
697.0117798,-0.0003804088628,697.0117798,0.0006689683069,697.0117798,-0.0006179242046,697.0117798,0.0004306453338,
696.0056152,0.0001155703358,696.0056152,0.0007546358393,696.0056152,-0.0006770113832,696.0056152,9.780820255E-005,
694.9990845,-0.0002870840253,694.9990845,0.0007603666163,694.9990845,-0.0005575880641,694.9990845,0.0002334247256,
693.9921875,-0.0002448640007,693.9921875,0.0007581884274,693.9921875,-0.0008343828376,693.9921875,0.0003400158312,
692.9850464,-0.0002043475251,692.9850464,0.0007543765241,692.9850464,-0.0004579918459,692.9850464,0.0001095114494,
692.0135498,-0.0007215152727,692.0135498,0.0006559278117,692.0135498,-0.0006356046651,692.0135498,-0.0001290482614,
691.0057373,7.30563479E-005,691.0057373,0.0009781406261,691.0057373,-0.0004935719189,691.0057373,0.0006740498357,
689.9975586,-0.0003802536812,689.9975586,0.0002484987199,689.9975586,-0.000492744497,689.9975586,0.0003934118722,
688.9891357,-0.001022326993,688.9891357,0.00032672612,688.9891357,-0.00116893719,688.9891357,0.0001176158767,
688.0162964,-0.0009199958295,688.0162964,0.0003549121902,688.0162964,-0.0004536992637,688.0162964,3.096072032E-005,
687.0072021,-0.0009736180655,687.0072021,0.0002681319602,687.0072021,-0.000650079397,687.0072021,2.570552715E-005,
685.9978027,-0.0004843669012,685.9978027,0.0005187020288,685.9978027,-0.0005287354579,685.9978027,0.0001045919053,
684.9880371,-0.0007331961533,684.9880371,0.0003076083376,684.9880371,-0.0005253743147,684.9880371,-0.000119783741,
684.0139771,-0.0006276950589,684.0139771,0.0004768741783,684.0139771,-0.0001059642236,684.0139771,0.0001296044938,
683.0036621,-0.0005220649182,683.0036621,0.0006120647304,683.0036621,-0.0005505560548,683.0036621,9.035143012E-005,
681.9929199,-1.972465907E-005,681.9929199,0.0004337029241,681.9929199,-0.0006282637478,681.9929199,0.0003330211912,
681.0179443,-0.0005576914991,681.0179443,0.0004294015525,681.0179443,-0.0009953130502,681.0179443,-5.000880992E-005,
680.0065918,-0.0002062104322,680.0065918,0.0008685915382,680.0065918,-0.0006016906118,680.0065918,0.0001717355772,
678.9949951,-0.000162792232,678.9949951,0.0007910704007,678.9949951,-0.0002969658235,678.9949951,0.0001963635732,
677.9829712,-0.0004252535,677.9829712,0.0004298679705,677.9829712,-0.0004541647213,677.9829712,0.0004932264565,
677.0068359,-0.0005703074276,677.0068359,0.0002372579183,677.0068359,-0.001124943839,677.0068359,0.0001980728121,
675.9942017,-0.0004450622946,675.9942017,0.0004987983266,675.9942017,-0.0001083451498,675.9942017,6.415016833E-005,
675.0174561,-0.0004235467059,675.0174561,0.0008863852709,675.0174561,-0.0002006734285,675.0174561,0.0006771350745,
674.0042725,-0.0003814951051,674.0042725,0.0005633850815,674.0042725,-0.0007015640149,674.0042725,0.0001687575277,
672.9906006,-0.0003642181109,672.9906006,0.0001974512707,672.9906006,-0.0008633185062,672.9906006,0.0004175342328,
672.0130005,0.000159771691,672.0130005,0.0008090683841,672.0130005,0.0001309250802,672.0130005,0.0005670656683,
670.9987793,0.0001346537902,670.9987793,0.001022741315,670.9987793,2.259903886E-005,670.9987793,0.0003929973172,
669.984314,3.046885286E-005,669.984314,0.0006031215889,669.984314,-0.0005803895765,669.984314,-1.190752869E-006,
669.0056763,-0.0003229885187,669.0056763,0.0005459933891,669.0056763,-0.0004476999457,669.0056763,0.0001869887055,
667.9906006,-0.0004968298599,667.9906006,0.0007115147891,667.9906006,-0.0003696495842,667.9906006,0.0004401809128,
667.0114136,-0.0006546801305,667.0114136,0.0008900167304,667.0114136,-0.0007046136307,667.0114136,0.0004953515599,
665.9956665,-0.0003483889159,665.9956665,0.0006456097472,665.9956665,-0.0004513719759,665.9956665,0.0007875954034,
665.0159302,-0.0002609039366,665.0159302,0.001023415942,665.0159302,-0.0001109330915,665.0159302,0.0005940489937,
663.9995728,2.531721475E-005,663.9995728,0.0008325395174,663.9995728,-0.0002564024762,663.9995728,0.0001550328452,
662.9829102,0.0003061058815,662.9829102,0.0008074345533,662.9829102,-0.0001925489196,662.9829102,0.0006621498615,
662.0021362,0.0001019768024,662.0021362,0.0006969691603,662.0021362,-0.0005078962422,662.0021362,0.000386520027,
660.9849243,1.188182159E-005,660.9849243,0.000655150041,660.9849243,-7.822034968E-005,660.9849243,0.0001884907542,
660.0036621,7.717292465E-005,660.0036621,0.0008575422107,660.0036621,4.235150845E-005,660.0036621,0.0005144517054,
658.9857788,7.919239579E-005,658.9857788,0.00094023766,658.9857788,-0.0001893404697,658.9857788,0.0003173743607,
658.0039063,-7.288876805E-005,658.0039063,0.001014308538,658.0039063,-0.0001140903623,658.0039063,0.0005145812756,
656.9853516,2.052805758E-005,656.9853516,0.0009480722365,656.9853516,-0.0001365529024,656.9853516,0.0005308053805,
656.0029297,0.0001227945031,656.0029297,0.0009501994937,656.0029297,-7.226761227E-005,656.0029297,0.0005526544992,
654.9838257,0.0001153114135,654.9838257,0.0008472452755,654.9838257,-0.000451785716,654.9838257,0.0004737903655,
654.0007935,0.0003461556626,654.0007935,0.001039269846,654.0007935,0.000122613259,654.0007935,0.0004836378794,
653.0174561,0.0001315465197,653.0174561,0.001122570829,653.0174561,-5.052647248E-005,653.0174561,0.0004154095368,
651.9974365,0.0002737009199,651.9974365,0.001248460962,651.9974365,-9.235131438E-005,651.9974365,0.00055910839,
651.0135498,0.0002635214478,651.0135498,0.0008191050729,651.0135498,-0.000300535612,651.0135498,0.0007437190507,
649.992981,0.0005133372615,649.992981,0.0007227678434,649.992981,0.0001355341956,649.992981,0.0008438216755,
649.0084229,8.877205983E-005,649.0084229,0.0009249839932,649.0084229,-0.0002718728792,649.0084229,0.0003999411128,
647.9871826,0.0003523214837,647.9871826,0.001261545229,647.9871826,0.000411108369,647.9871826,0.0009538315353,
647.0021362,0.000463865319,647.0021362,0.001160126412,647.0021362,6.826666504E-005,647.0021362,0.0008985248278,
646.0167847,0.000355870754,646.0167847,0.001214765594,646.0167847,-0.0001638272806,646.0167847,0.0004475918831,
644.9946899,0.0006517538568,644.9946899,0.001162540284,644.9946899,0.0003361040144,644.9946899,0.0009363463614,
644.008728,0.0005001718528,644.008728,0.001625077333,644.008728,0.0007259311969,644.008728,0.0009495249833,
642.9860229,0.0004264476593,642.9860229,0.001294699032,642.9860229,1.998442713E-005,642.9860229,0.001062364201,
641.9995117,0.0003948369122,641.9995117,0.0009017931879,641.9995117,-0.0001189038594,641.9995117,0.0006591684651,
641.0126953,0.000394111441,641.0126953,0.001533782575,641.0126953,0.0003141880734,641.0126953,0.0008964755689,
639.9891357,0.0002817306959,639.9891357,0.001327076461,639.9891357,0.0002470223699,639.9891357,0.0006587795797,
639.00177,0.0007972944295,639.00177,0.001566775376,639.00177,0.0008529513725,639.00177,0.001017681672,
638.0141602,0.0006547093508,638.0141602,0.001417964115,638.0141602,0.0003808978072,638.0141602,0.0009062030003,
636.989624,0.0006273333565,636.989624,0.001450480544,636.989624,0.0003960287431,636.989624,0.0006449098,
636.0014038,0.00100823713,636.0014038,0.001481778687,636.0014038,0.0007650602493,636.0014038,0.001363065676,
635.0129395,0.0009351270855,635.0129395,0.001592184068,635.0129395,0.0007971128798,635.0129395,0.001547680818,
633.9875488,0.0007050586282,633.9875488,0.001527002547,633.9875488,0.0006403470761,633.9875488,0.001253419439,
632.9985352,0.0009208334377,632.9985352,0.001572880545,632.9985352,0.0008309315308,632.9985352,0.001141413115,
632.0092163,0.0007982280222,632.0092163,0.00163287227,632.0092163,0.0006299775559,632.0092163,0.001323597156,
630.9829102,0.0009926956845,630.9829102,0.00170165603,630.9829102,0.0009236350306,630.9829102,0.0013450447,
629.993042,0.001142139779,629.993042,0.001804267173,629.993042,0.001088963123,629.993042,0.001505831606,
629.0028687,0.001108322875,629.0028687,0.001658206922,629.0028687,0.000902701111,629.0028687,0.001714649959,
628.0123901,0.001148991752,628.0123901,0.001823242987,628.0123901,0.0009781925473,628.0123901,0.001634041546,
626.9849854,0.0007122407551,626.9849854,0.001766863745,626.9849854,0.0008879156667,626.9849854,0.00131066679,
625.9939575,0.001067917328,625.9939575,0.002108266344,625.9939575,0.00144723407,625.9939575,0.001866838546,
625.0026855,0.00117494713,625.0026855,0.001925154822,625.0026855,0.001114447601,625.0026855,0.001696224557,
624.0111084,0.001310043619,624.0111084,0.002293692902,624.0111084,0.001635704422,624.0111084,0.001858415431,
622.9824829,0.0009778293315,622.9824829,0.0019819187,622.9824829,0.001001750701,622.9824829,0.001560748089,
621.9904175,0.001318170456,621.9904175,0.002216931665,621.9904175,0.001469570794,621.9904175,0.002017676132,
620.9980469,0.0009813318029,620.9980469,0.001978824148,620.9980469,0.001494116732,620.9980469,0.001828753855,
620.0054321,0.0009026491898,620.0054321,0.001993516693,620.0054321,0.0011863939,620.0054321,0.001980462344,
619.0124512,0.001018382143,619.0124512,0.002346210647,619.0124512,0.00158397411,619.0124512,0.00188501121,
617.9824829,0.001430689939,617.9824829,0.002552725375,617.9824829,0.001673512277,617.9824829,0.00222333218,
616.9890137,0.001126515679,616.9890137,0.00229952205,616.9890137,0.00158049271,616.9890137,0.002099136123,
615.9951782,0.001394019928,615.9951782,0.002520803362,615.9951782,0.001680710469,615.9951782,0.00228122808,
615.0012207,0.001203266089,615.0012207,0.002496329602,615.0012207,0.001661480987,615.0012207,0.002301630098,
614.006897,0.001708490774,614.006897,0.002844403265,614.006897,0.002165600425,614.006897,0.002844872186,
613.0122681,0.00152071612,613.0122681,0.002959508216,613.0122681,0.002277402673,613.0122681,0.002709896769,
612.0174561,0.001411627396,612.0174561,0.002598399529,612.0174561,0.002376453951,612.0174561,0.002686584368,
610.9855347,0.001758286613,610.9855347,0.003010959597,610.9855347,0.002459178912,610.9855347,0.002765695099,
609.9900513,0.001638536691,609.9900513,0.003162638284,609.9900513,0.002350140596,609.9900513,0.002847842639,
608.9944458,0.001735778991,608.9944458,0.003069560044,608.9944458,0.002523407107,608.9944458,0.002933237469,
607.9985352,0.002061161213,607.9985352,0.003332629567,607.9985352,0.002506509423,607.9985352,0.002959794831,
607.0023193,0.002332677133,607.0023193,0.003413527738,607.0023193,0.002872674959,607.0023193,0.003459553467,
606.0059204,0.00207525841,606.0059204,0.003460675478,606.0059204,0.002798703266,606.0059204,0.003293738002,
605.0091553,0.002249664161,605.0091553,0.003669261234,605.0091553,0.002942020306,605.0091553,0.003231821349,
604.012146,0.002056349535,604.012146,0.003315491835,604.012146,0.0028542527,604.012146,0.003343298566,
603.0148926,0.002304622671,603.0148926,0.003694453975,603.0148926,0.003145950614,603.0148926,0.003623213386,
602.017395,0.002588712145,602.017395,0.004003149457,602.017395,0.003372802865,602.017395,0.003923813347,
600.982605,0.002831375459,600.982605,0.004292352591,600.982605,0.003720875131,600.982605,0.004224882461,
599.9846191,0.002873378573,599.9846191,0.004406795837,599.9846191,0.00375267677,599.9846191,0.004170778207,
598.9862671,0.003013409674,598.9862671,0.004196235444,598.9862671,0.004153006244,598.9862671,0.004477197304,
597.9876709,0.00357074989,597.9876709,0.004806263838,597.9876709,0.004541646224,597.9876709,0.004823119845,
596.9888306,0.002945799381,596.9888306,0.004452691879,596.9888306,0.004311306868,596.9888306,0.004419060424,
595.9896851,0.003358819988,595.9896851,0.004732485395,595.9896851,0.004620153923,595.9896851,0.004854714498,
594.9903564,0.003622273682,594.9903564,0.005214010831,594.9903564,0.004872096237,594.9903564,0.005078323185,
593.9907227,0.003980107605,593.9907227,0.00528200157,593.9907227,0.005057580769,593.9907227,0.005504834466,
592.9908447,0.003953304607,592.9908447,0.005340044387,592.9908447,0.005201147404,592.9908447,0.005374637898,
591.9907227,0.004014305305,591.9907227,0.005360748153,591.9907227,0.005322774872,591.9907227,0.005650279578,
590.9902954,0.004532857332,590.9902954,0.005940792151,590.9902954,0.00582263805,590.9902954,0.005720253568,
589.989563,0.004494904075,589.989563,0.005868893582,589.989563,0.005751021672,589.989563,0.006106387358,
588.9886475,0.004789407831,588.9886475,0.006302327849,588.9886475,0.006051418371,588.9886475,0.006687087473,
587.9874878,0.005045481492,587.9874878,0.006370672956,587.9874878,0.006529469043,587.9874878,0.006780418567,
586.9860229,0.005129214376,586.9860229,0.006604709662,586.9860229,0.006714138202,586.9860229,0.006788700819,
585.984314,0.005486850161,585.984314,0.007022962905,585.984314,0.007377739064,585.984314,0.007331954781,
584.9823608,0.005803906359,584.9823608,0.007068530656,584.9823608,0.007038221695,584.9823608,0.007529186085,
584.0172119,0.00599866081,584.0172119,0.007326268125,584.0172119,0.00767391501,584.0172119,0.007599674165,
583.0147705,0.006367967464,583.0147705,0.007882874459,583.0147705,0.008178576827,583.0147705,0.008294735104,
582.0120239,0.006442523561,582.0120239,0.008111740462,582.0120239,0.008402029984,582.0120239,0.008535777219,
581.0090332,0.006446753163,581.0090332,0.008243761957,581.0090332,0.008799063042,581.0090332,0.008937081322,
580.0058594,0.007118550129,580.0058594,0.008605214767,580.0058594,0.009089971893,580.0058594,0.009101682343,
579.0023804,0.007054796442,579.0023804,0.008856151253,579.0023804,0.009460753761,579.0023804,0.009221418761,
577.9985962,0.00727485586,577.9985962,0.009089205414,577.9985962,0.009782499634,577.9985962,0.009652523324,
576.9945679,0.007690777536,576.9945679,0.009664354846,576.9945679,0.01033680327,576.9945679,0.01024821773,
575.9902954,0.007914270274,575.9902954,0.009825021029,575.9902954,0.01045213453,575.9902954,0.01031941362,
574.9858398,0.008395458572,574.9858398,0.01034072693,574.9858398,0.01077979058,574.9858398,0.01103084534,
574.0183105,0.008453259245,574.0183105,0.01017735153,574.0183105,0.01105012279,574.0183105,0.01102524344,
573.0132446,0.008996671997,573.0132446,0.01085903589,573.0132446,0.01168110967,573.0132446,0.01143504679,
572.0079956,0.009069433436,572.0079956,0.01067437325,572.0079956,0.01198172569,572.0079956,0.01149601769,
571.0025024,0.00972219184,571.0025024,0.01170070842,571.0025024,0.01257484406,571.0025024,0.01237927657,
569.9967041,0.01011985075,569.9967041,0.01212994289,569.9967041,0.01322686486,569.9967041,0.01275319885,
568.9907837,0.01052524708,568.9907837,0.01234201621,568.9907837,0.01377014164,568.9907837,0.01334931981,
567.984436,0.01080951281,567.984436,0.01303281821,567.984436,0.01442323811,567.984436,0.01375699509,
567.0153198,0.01154200453,567.0153198,0.01344230492,567.0153198,0.01475936826,567.0153198,0.01455834415,
566.0084839,0.01163300779,566.0084839,0.01365913451,566.0084839,0.01512826979,566.0084839,0.01477814186,
565.0015259,0.01224460639,565.0015259,0.01447542384,565.0015259,0.01585844904,565.0015259,0.01544946898,
563.9942627,0.01293189265,563.9942627,0.01493862271,563.9942627,0.01648955606,563.9942627,0.0160271991,
562.9868164,0.01301761344,562.9868164,0.01533867512,562.9868164,0.01705806702,562.9868164,0.01646422967,
562.0163574,0.0138981482,562.0163574,0.01595159806,562.0163574,0.01788206957,562.0163574,0.01724689081,
561.0084229,0.01394591387,561.0084229,0.0163844116,561.0084229,0.01811961457,561.0084229,0.01771394722,
560.0001221,0.01470315922,560.0001221,0.01713130251,560.0001221,0.01912029833,560.0001221,0.0185666997,
558.9916992,0.01521640923,558.9916992,0.01756542921,558.9916992,0.01972620562,558.9916992,0.01925495267,
557.9829712,0.01570653915,557.9829712,0.01811545901,557.9829712,0.02046633326,557.9829712,0.01999189332,
557.0114136,0.01627792045,557.0114136,0.01868704706,557.0114136,0.02100402303,557.0114136,0.02043418027,
556.0021973,0.01711883582,556.0021973,0.01952963881,556.0021973,0.02209240384,556.0021973,0.02153454348,
554.9927368,0.01758324727,554.9927368,0.02029018104,554.9927368,0.02277028561,554.9927368,0.02186198719,
553.9830933,0.01838302426,553.9830933,0.02088009566,553.9830933,0.02375331894,553.9830933,0.02279516496,
553.0105591,0.01889648102,553.0105591,0.02149287239,553.0105591,0.02462334,553.0105591,0.02345313504,
552.0003052,0.01961152628,552.0003052,0.02220659517,552.0003052,0.0256478712,552.0003052,0.02440660819,
550.9899902,0.02032425068,550.9899902,0.02299168706,550.9899902,0.02630652115,550.9899902,0.02534549683,
550.0167847,0.02098527551,550.0167847,0.02380371094,550.0167847,0.0272964444,550.0167847,0.02614206076,
549.0058594,0.02208033763,549.0058594,0.02494423836,549.0058594,0.02850454114,549.0058594,0.02739756554,
547.9946899,0.02288533747,547.9946899,0.02567714453,547.9946899,0.02958718687,547.9946899,0.02828788199,
546.9833984,0.02336860634,546.9833984,0.0261769779,546.9833984,0.03033211455,546.9833984,0.02899989113,
546.0092773,0.02419466525,546.0092773,0.02721703611,546.0092773,0.03166206181,546.0092773,0.03002526984,
544.9974365,0.0252735503,544.9974365,0.02841772512,544.9974365,0.03289617598,544.9974365,0.03129991144,
543.9854126,0.02615319565,543.9854126,0.02922429703,543.9854126,0.03366621584,543.9854126,0.03215737641,
543.0105591,0.02692499757,543.0105591,0.03025933728,543.0105591,0.03487429023,543.0105591,0.03336477652,
541.9979858,0.0279151164,541.9979858,0.03113009967,541.9979858,0.03624370694,541.9979858,0.0343211256,
540.9851685,0.02842712216,540.9851685,0.03190774098,540.9851685,0.0369897224,540.9851685,0.03539799899,
540.0097046,0.02978248335,540.0097046,0.03335314989,540.0097046,0.0387525782,540.0097046,0.03705974296,
538.99646,0.03081885539,538.99646,0.03455087915,538.99646,0.04011723399,538.99646,0.03824270517,
537.9830322,0.03226998076,537.9830322,0.03574031219,537.9830322,0.04187547043,537.9830322,0.03966224939,
537.0067749,0.03276465088,537.0067749,0.03657187521,537.0067749,0.04279237241,537.0067749,0.04046113044,
535.9928589,0.03413556889,535.9928589,0.03791615367,535.9928589,0.04433099926,535.9928589,0.04202486947,
535.0162964,0.03552524,535.0162964,0.03945696354,535.0162964,0.04618062824,535.0162964,0.04375730455,
534.0018921,0.03626011312,534.0018921,0.04045348614,534.0018921,0.04732848331,534.0018921,0.04509328678,
532.9871826,0.0374533385,532.9871826,0.04167192802,532.9871826,0.04864589497,532.9871826,0.04627098143,
532.0099487,0.03875792772,532.0099487,0.04317518696,532.0099487,0.05073098466,532.0099487,0.04796886444,
530.994812,0.04041837156,530.994812,0.04497168213,530.994812,0.05256345496,530.994812,0.0496346727,
530.0170898,0.04210226983,530.0170898,0.04663453996,530.0170898,0.05491604656,530.0170898,0.05189030245,
529.0015259,0.04308610409,529.0015259,0.04778862745,529.0015259,0.05599192157,529.0015259,0.05314706638,
527.9857178,0.04414925352,527.9857178,0.04917167127,527.9857178,0.05768802017,527.9857178,0.05472588167,
527.0073242,0.04602288455,527.0073242,0.05093023181,527.0073242,0.05985000357,527.0073242,0.0565790385,
525.9910278,0.04728097096,525.9910278,0.05243591592,525.9910278,0.06157591194,525.9910278,0.05836750194,
525.012207,0.04881504551,525.012207,0.05412182212,525.012207,0.063649863,525.012207,0.0601831302,
523.9955444,0.05046247691,523.9955444,0.05593293905,523.9955444,0.06576755643,523.9955444,0.06225977466,
523.0162354,0.0521899946,523.0162354,0.05774182826,523.0162354,0.06807804853,523.0162354,0.06426874548,
521.9991455,0.05403996259,521.9991455,0.05938272551,521.9991455,0.07037515193,521.9991455,0.06641944498,
520.9817505,0.05582483485,520.9817505,0.06155425683,520.9817505,0.07269447297,520.9817505,0.06854881346,
520.0018311,0.05744123459,520.0018311,0.0631121397,520.0018311,0.07485228777,520.0018311,0.07065190375,
518.9839478,0.05921406299,518.9839478,0.06520903856,518.9839478,0.07714546472,518.9839478,0.07287763804,
518.0036011,0.0607223548,518.0036011,0.0670081228,518.0036011,0.07923649251,518.0036011,0.07474093884,
516.9853516,0.06285402924,516.9853516,0.06919569522,516.9853516,0.08189210296,516.9853516,0.07723665237,
516.0045776,0.0648227185,516.0045776,0.07152695954,516.0045776,0.0846202895,516.0045776,0.07971549779,
514.9859009,0.06694986671,514.9859009,0.07364375889,514.9859009,0.08734796196,514.9859009,0.0823064968,
514.0046387,0.06879650056,514.0046387,0.07598555088,514.0046387,0.09010132402,514.0046387,0.08498285711,
512.9855347,0.07109393924,512.9855347,0.07820901275,512.9855347,0.09264456481,512.9855347,0.08732517064,
512.0039063,0.07302577794,512.0039063,0.08040668815,512.0039063,0.09546516091,512.0039063,0.08989492059,
510.9842224,0.07555271685,510.9842224,0.08297885209,510.9842224,0.09864832461,510.9842224,0.09285391122,
510.0021667,0.07761143148,510.0021667,0.08543682843,510.0021667,0.101319015,510.0021667,0.0955997929,
508.9820862,0.08001112193,508.9820862,0.08808010817,508.9820862,0.104494065,508.9820862,0.09842727333,
507.9996338,0.08230446279,507.9996338,0.09026899934,507.9996338,0.1073577031,507.9996338,0.1011126712,
507.0169678,0.08456757665,507.0169678,0.09300274402,507.0169678,0.1107245982,507.0169678,0.1041003317,
505.9962463,0.08735831082,505.9962463,0.09598585963,505.9962463,0.1141628772,505.9962463,0.1075409427,
505.0131531,0.09006978571,505.0131531,0.09871859848,505.0131531,0.1176957935,505.0131531,0.1108565927,
503.9919739,0.09301906079,503.9919739,0.1018879563,503.9919739,0.1211738884,503.9919739,0.1142087728,
503.0084534,0.09504257143,503.0084534,0.1044591963,503.0084534,0.1242627054,503.0084534,0.1168970168,
501.9868469,0.09839408845,501.9868469,0.1078731269,501.9868469,0.1284476817,501.9868469,0.1209036931,
501.0029297,0.1012262851,501.0029297,0.1109282747,501.0029297,0.1321098059,501.0029297,0.1242890358,
500.0187683,0.1041107923,500.0187683,0.114102751,500.0187683,0.1359198242,500.0187683,0.1278898716,
498.996582,0.1073503494,498.996582,0.1176557094,498.996582,0.1400727481,498.996582,0.1319158375,
498.0119934,0.1102579013,498.0119934,0.1207111105,498.0119934,0.1438276768,498.0119934,0.1352673173,
496.9893188,0.1130354926,496.9893188,0.1239918917,496.9893188,0.1476584971,496.9893188,0.1389134377,
496.004364,0.116102621,496.004364,0.127239421,496.004364,0.1516498774,496.004364,0.142849654,
494.9812927,0.1196652278,494.9812927,0.1308211684,494.9812927,0.1561694592,494.9812927,0.1470798701,
493.9958801,0.12301258,493.9958801,0.1346514821,493.9958801,0.1605693549,493.9958801,0.1509613395,
493.0102844,0.1265144944,493.0102844,0.1383676082,493.0102844,0.16487059,493.0102844,0.1551840305,
491.9866028,0.1297654361,491.9866028,0.1419485211,491.9866028,0.1691676527,491.9866028,0.1591127664,
491.0006104,0.1319290549,491.0006104,0.1445057839,491.0006104,0.1723783463,491.0006104,0.1622508764,
490.0144043,0.1359363198,490.0144043,0.1486280411,490.0144043,0.1776179671,490.0144043,0.1670179367,
488.9900208,0.1400644928,488.9900208,0.1530377865,488.9900208,0.1832534671,488.9900208,0.171783179,
488.0034485,0.1437288076,488.0034485,0.157043308,488.0034485,0.187505573,488.0034485,0.1762002558,
487.0166626,0.1468289047,487.0166626,0.1607371271,487.0166626,0.1918129772,487.0166626,0.1803404391,
485.9916382,0.1507889926,485.9916382,0.1646555662,485.9916382,0.1967695802,485.9916382,0.1850452721,
485.004425,0.1553588659,485.004425,0.1699276119,485.004425,0.2026939541,485.004425,0.1905168444,
484.0170288,0.1584879607,484.0170288,0.1732979268,484.0170288,0.2069790661,484.0170288,0.194335714,
482.9914246,0.1615052074,482.9914246,0.1766152084,482.9914246,0.2107109427,482.9914246,0.1986078918,
482.0036316,0.1659980565,482.0036316,0.1814122498,482.0036316,0.2168555409,482.0036316,0.2037069201,
481.015625,0.1699625254,481.015625,0.1858754158,481.015625,0.221952334,481.015625,0.2088868618,
479.9894104,0.1745069623,479.9894104,0.1907214373,479.9894104,0.2280674875,479.9894104,0.2142027169,
479.0010071,0.1786419004,479.0010071,0.1951018274,479.0010071,0.2331998348,479.0010071,0.2192717195,
478.0123596,0.1830101311,478.0123596,0.1996094733,478.0123596,0.238879174,478.0123596,0.2243597507,
476.9855347,0.1874599308,476.9855347,0.2049403638,476.9855347,0.2449273616,476.9855347,0.2300270945,
475.9965515,0.1919757873,475.9965515,0.2095599771,475.9965515,0.2505876422,475.9965515,0.235448733,
475.0073242,0.1964488029,475.0073242,0.2147401422,475.0073242,0.2565803528,475.0073242,0.2411921173,
474.0179443,0.200583607,474.0179443,0.2192025483,474.0179443,0.2620653212,474.0179443,0.2465111613,
472.9902954,0.2054935694,472.9902954,0.2247339189,472.9902954,0.2682960629,472.9902954,0.2521801591,
472.0005493,0.2102505118,472.0005493,0.2295157909,472.0005493,0.2743281722,472.0005493,0.2579457164,
471.0105896,0.2149365246,471.0105896,0.2347670197,471.0105896,0.2806106806,471.0105896,0.2637132108,
469.9822998,0.2196318805,469.9822998,0.2399742305,469.9822998,0.2870669663,469.9822998,0.2697956562,
468.9919739,0.2243044674,468.9919739,0.2447206676,468.9919739,0.2925919294,468.9919739,0.2749756277,
468.0014343,0.2292047441,468.0014343,0.2501852214,468.0014343,0.299631089,468.0014343,0.2809749246,
467.0107117,0.2337401062,467.0107117,0.2551587224,467.0107117,0.3052366674,467.0107117,0.2867030501,
465.9815674,0.2386563718,465.9815674,0.2605391741,465.9815674,0.3119156957,465.9815674,0.2928367853,
464.990448,0.2437871695,464.990448,0.2659333348,464.990448,0.3182920814,464.990448,0.2988771796,
463.9990845,0.2483679503,463.9990845,0.2707766593,463.9990845,0.3239590824,463.9990845,0.3046372533,
463.0075989,0.2538009882,463.0075989,0.2764195204,463.0075989,0.3308520317,463.0075989,0.3108795583,
462.0158997,0.2586521208,462.0158997,0.2816855907,462.0158997,0.3370238245,462.0158997,0.3167320192,
460.9858704,0.2641403973,460.9858704,0.2879082859,460.9858704,0.3443979323,460.9858704,0.3236301839,
459.9938049,0.2691546977,459.9938049,0.2930179536,459.9938049,0.3508430123,459.9938049,0.329582274,
459.0015259,0.2734477818,459.0015259,0.2976207733,459.0015259,0.3563208878,459.0015259,0.3349638581,
458.0090637,0.2790225148,458.0090637,0.3034525812,458.0090637,0.363337338,458.0090637,0.3415428698,
457.0163879,0.2836326659,457.0163879,0.3089984059,457.0163879,0.3699471653,457.0163879,0.3475399315,
455.9854126,0.2893627882,455.9854126,0.3147310913,455.9854126,0.3767720163,455.9854126,0.3541629314,
454.9923706,0.2947213352,454.9923706,0.3206798732,454.9923706,0.3838192821,454.9923706,0.3607893884,
453.999176,0.2995354235,453.999176,0.3260472119,453.999176,0.3904134631,453.999176,0.3665661812,
453.0057983,0.3047384918,453.0057983,0.3316028714,453.0057983,0.3971407413,453.0057983,0.3730514944,
452.0121765,0.309538424,452.0121765,0.3370029628,452.0121765,0.4033255279,452.0121765,0.378852874,
451.0184326,0.3147743642,451.0184326,0.3420433104,451.0184326,0.4100888968,451.0184326,0.3850618005,
449.9862671,0.3200785816,449.9862671,0.3484192193,449.9862671,0.4169973433,449.9862671,0.3918316662,
448.9920959,0.3253691792,448.9920959,0.3544201553,448.9920959,0.4239234626,448.9920959,0.3983095288,
447.9977417,0.3304594755,447.9977417,0.3595680594,447.9977417,0.4306364954,447.9977417,0.404741019,
447.0032959,0.335172534,447.0032959,0.3649201095,447.0032959,0.4371043742,447.0032959,0.4104172587,
446.008606,0.340210855,446.008606,0.3701408207,446.008606,0.4432029724,446.008606,0.416538775,
445.0137329,0.344915241,445.0137329,0.375408262,445.0137329,0.4494288564,445.0137329,0.4224478006,
444.0186462,0.3506481349,444.0186462,0.3813532293,444.0186462,0.4567239881,444.0186462,0.4292174876,
442.985199,0.355563581,442.985199,0.387167573,442.985199,0.4634883106,442.985199,0.4357707798,
441.9897461,0.3605007827,441.9897461,0.3925638199,441.9897461,0.4696282446,441.9897461,0.4413290322,
440.9941711,0.364972204,440.9941711,0.3975524902,440.9941711,0.4759386182,440.9941711,0.4472432435,
439.9983826,0.3689307272,439.9983826,0.4023310244,439.9983826,0.4811745882,439.9983826,0.4524418116,
439.0024414,0.3734808862,439.0024414,0.4070602357,439.0024414,0.4873185754,439.0024414,0.4581441879,
438.0062866,0.3784496486,438.0062866,0.4125591218,438.0062866,0.4935461283,438.0062866,0.4638821185,
437.0099182,0.3827835023,437.0099182,0.4174096882,437.0099182,0.4992780685,437.0099182,0.4694715738,
436.0134277,0.3873218596,436.0134277,0.422234267,436.0134277,0.5053049922,436.0134277,0.4747602344,
435.0168152,0.3913964927,435.0168152,0.4263792336,435.0168152,0.5104032755,435.0168152,0.4798816442,
433.9815674,0.3956837654,433.9815674,0.4314538538,433.9815674,0.5163897872,433.9815674,0.4853734076,
432.9845581,0.4003852904,432.9845581,0.4363955855,432.9845581,0.5224453211,432.9845581,0.4910811484,
431.9873657,0.4042000175,431.9873657,0.4407727122,431.9873657,0.5273812413,431.9873657,0.4958780706,
430.9900208,0.4084451497,430.9900208,0.4451408386,430.9900208,0.53257972,430.9900208,0.5006418824,
429.9924316,0.4119968712,429.9924316,0.4493207037,429.9924316,0.5374763012,429.9924316,0.5053530335,
428.9946899,0.4158105254,428.9946899,0.4533041418,428.9946899,0.5424551368,428.9946899,0.509989202,
427.9967957,0.4198954999,427.9967957,0.4573260248,427.9967957,0.5471960902,427.9967957,0.5147275329,
426.9986877,0.4239735305,426.9986877,0.4621359408,426.9986877,0.5526853204,426.9986877,0.5200365186,
426.0004272,0.4271498322,426.0004272,0.465864867,426.0004272,0.5568845868,426.0004272,0.5238204002,
425.0020142,0.4302216768,425.0020142,0.4692262411,425.0020142,0.5609028935,425.0020142,0.527641952,
424.003418,0.4335507154,424.003418,0.4727064967,424.003418,0.5654633641,424.003418,0.5316796303,
423.0046082,0.4362001419,423.0046082,0.4754863381,423.0046082,0.5688575506,423.0046082,0.5349445939,
422.0056763,0.4398072958,422.0056763,0.4791429341,422.0056763,0.5730767846,422.0056763,0.5389618278,
421.0065918,0.4425237477,421.0065918,0.4822639823,421.0065918,0.5767263174,421.0065918,0.5426199436,
420.0072632,0.4449034035,420.0072632,0.4845726788,420.0072632,0.5798501372,420.0072632,0.5453499556,
419.007782,0.4468048215,419.007782,0.4869400263,419.007782,0.5825566053,419.007782,0.5479552746,
418.0081177,0.4493839741,418.0081177,0.4899147153,418.0081177,0.5856990218,418.0081177,0.5509541035,
417.0083923,0.4515389204,417.0083923,0.4921185672,417.0083923,0.5888647437,417.0083923,0.5536275506,
416.0083923,0.4536934197,416.0083923,0.4942572713,416.0083923,0.5912246704,416.0083923,0.5562757254,
415.0082397,0.4553497434,415.0082397,0.4961404204,415.0082397,0.5933966637,415.0082397,0.558321476,
414.0079041,0.4572732747,414.0079041,0.4981810749,414.0079041,0.5955277681,414.0079041,0.5604380369,
413.0074158,0.4587082565,413.0074158,0.4997424781,413.0074158,0.5975107551,413.0074158,0.562251389,
412.0067749,0.459990412,412.0067749,0.5010547638,412.0067749,0.5991591811,412.0067749,0.5636724234,
411.0059509,0.4612820446,411.0059509,0.5021779537,411.0059509,0.6005137563,411.0059509,0.5649788976,
410.0049133,0.4618130922,410.0049133,0.5030103326,410.0049133,0.6015803218,410.0049133,0.5659341216,
409.0038147,0.4624351561,409.0038147,0.5037314892,409.0038147,0.602404356,409.0038147,0.5668308139,
408.0025024,0.463175267,408.0025024,0.5043287277,408.0025024,0.6029378176,408.0025024,0.5674486756,
407.0009766,0.4636728466,407.0009766,0.5046917796,407.0009766,0.6033989787,407.0009766,0.5679507852,
405.9993286,0.4637176394,405.9993286,0.5048365593,405.9993286,0.6032247543,405.9993286,0.5677354336,
404.9975586,0.4634659588,404.9975586,0.5049831271,404.9975586,0.6033658385,404.9975586,0.5678853393,
403.9955139,0.4634934366,403.9955139,0.5047766566,403.9955139,0.6029219031,403.9955139,0.5678812861,
402.9933777,0.4629313946,402.9933777,0.5045750141,402.9933777,0.6027332544,402.9933777,0.5674299598,
401.9910889,0.4627878964,401.9910889,0.504011631,401.9910889,0.6018891335,401.9910889,0.566795826,
400.9886169,0.4620215595,400.9886169,0.5032421947,400.9886169,0.6010513306,400.9886169,0.5658293962,
399.9859619,0.4611882865,399.9859619,0.5023600459,399.9859619,0.5999281406,399.9859619,0.5650342107,
398.9831543,0.4603480399,398.9831543,0.5014837384,398.9831543,0.5986766219,398.9831543,0.5638779402,
398.0187683,0.4594084918,398.0187683,0.5005341172,398.0187683,0.5975067616,398.0187683,0.5628820658,
397.015625,0.4584521651,397.015625,0.4990347624,397.015625,0.5959919095,397.015625,0.5611381531,
396.0123596,0.4571751654,396.0123596,0.497574836,396.0123596,0.5937870741,396.0123596,0.5595772862,
395.0088806,0.4558671117,395.0088806,0.4962997437,395.0088806,0.5917980671,395.0088806,0.5577402711,
394.0052795,0.4542808533,394.0052795,0.4943806529,394.0052795,0.5897198915,394.0052795,0.5554838777,
393.0015259,0.4529943466,393.0015259,0.4932713509,393.0015259,0.5879678726,393.0015259,0.5541368723,
391.9975891,0.4520558715,391.9975891,0.491759181,391.9975891,0.585956037,391.9975891,0.5523255467,
390.9935303,0.4503110647,390.9935303,0.4902179241,390.9935303,0.5834258199,390.9935303,0.5502954125,
389.9892578,0.449501574,389.9892578,0.4890565872,389.9892578,0.5818331242,389.9892578,0.5491444468,
388.9848633,0.4487974048,388.9848633,0.4878286719,388.9848633,0.5799043179,388.9848633,0.5476901531,
388.0189209,0.448340416,388.0189209,0.4876047671,388.0189209,0.578740716,388.0189209,0.5467282534,
387.0142212,0.4477383196,387.0142212,0.4869164228,387.0142212,0.5775827765,387.0142212,0.5456745625,
386.0093384,0.447447747,386.0093384,0.4869144261,386.0093384,0.5766465664,386.0093384,0.5452338457,
385.0043335,0.4479896128,385.0043335,0.4869724214,385.0043335,0.5763013363,385.0043335,0.544947207,
383.999115,0.4485428035,383.999115,0.4877096713,383.999115,0.5757369399,383.999115,0.5450199842,
382.9937744,0.4497209489,382.9937744,0.4884595871,382.9937744,0.5763024688,382.9937744,0.5460625291,
381.9882507,0.4512605965,381.9882507,0.4899742901,381.9882507,0.5772102475,381.9882507,0.5472221971,
380.9826355,0.4543327689,380.9826355,0.4932848811,380.9826355,0.5797039866,380.9826355,0.5505494475,
380.0155029,0.4578562975,380.0155029,0.4969866276,380.0155029,0.582321167,380.0155029,0.5536248684,
379.0095215,0.4625205696,379.0095215,0.5015956163,379.0095215,0.586804986,379.0095215,0.5585297346,
378.0034485,0.4679684937,378.0034485,0.5074389577,378.0034485,0.591442585,378.0034485,0.5641257763,
376.9971313,0.4742441773,376.9971313,0.5140141845,376.9971313,0.5968703628,376.9971313,0.5702542067,
375.9907227,0.4815757871,375.9907227,0.5216445923,375.9907227,0.6043795943,375.9907227,0.5782262087,
374.9841614,0.4907337427,374.9841614,0.5311415195,374.9841614,0.6134613156,374.9841614,0.588196218,
374.0161438,0.5015708804,374.0161438,0.542896986,374.0161438,0.623981595,374.0161438,0.5989418626,
373.0092468,0.5126954317,373.0092468,0.5544965267,373.0092468,0.6355630755,373.0092468,0.6114540696,
372.0022278,0.5270520449,372.0022278,0.5698847175,372.0022278,0.6504917145,372.0022278,0.6278364658,
370.9950562,0.5420832038,370.9950562,0.585719049,370.9950562,0.6653835773,370.9950562,0.6434326172,
369.9877319,0.5592214465,369.9877319,0.6039409637,369.9877319,0.6838880777,369.9877319,0.6624715328,
369.0190125,0.5784570575,369.0190125,0.6245112419,369.0190125,0.7037811875,369.0190125,0.6839030981,
368.0113831,0.5997798443,368.0113831,0.6480022669,368.0113831,0.7267785668,368.0113831,0.7081551552,
367.0036011,0.6245951056,367.0036011,0.6739537716,367.0036011,0.7521341443,367.0036011,0.7345004082,
365.9956665,0.647804141,365.9956665,0.6985905766,365.9956665,0.7779347301,365.9956665,0.7604327798,
364.9876099,0.6779965162,364.9876099,0.7298831344,364.9876099,0.8086090088,364.9876099,0.7916511893,
364.018158,0.7080658078,364.018158,0.7624067068,364.018158,0.8411974311,364.018158,0.8259475231,
363.0097656,0.7428398728,363.0097656,0.7991207242,363.0097656,0.8771894574,363.0097656,0.8628838658,
362.0012512,0.7785207629,362.0012512,0.8368344307,362.0012512,0.9162063599,362.0012512,0.9023751616,
360.9926147,0.8074788451,360.9926147,0.8690934181,360.9926147,0.9467036724,360.9926147,0.9360420108,
359.9837952,0.8488324881,359.9837952,0.9114122391,359.9837952,0.9893794656,359.9837952,0.9783118367,
359.0136108,0.8892071843,359.0136108,0.9569972157,359.0136108,1.036429763,359.0136108,1.026141047,
358.0045471,0.9381475449,358.0045471,1.006484389,358.0045471,1.085472703,358.0045471,1.076637506,
356.9953003,0.9775437117,356.9953003,1.050067306,356.9953003,1.128205776,356.9953003,1.121185422,
355.9859009,1.026678085,355.9859009,1.098964691,355.9859009,1.179872394,355.9859009,1.17402482,
355.0152283,1.073823214,355.0152283,1.150706172,355.0152283,1.231694937,355.0152283,1.226489544,
354.0055542,1.135805249,354.0055542,1.216631413,354.0055542,1.295293689,354.0055542,1.290771604,
352.995697,1.190184593,352.995697,1.272265196,352.995697,1.352917552,352.995697,1.350292563,
351.9857788,1.257739186,351.9857788,1.339663148,351.9857788,1.423607945,351.9857788,1.419600606,
351.0144958,1.311962008,351.0144958,1.403446674,351.0144958,1.484343529,351.0144958,1.483158827,
350.0042419,1.378432035,350.0042419,1.473650813,350.0042419,1.554227352,350.0042419,1.554489493,
348.993866,1.458415627,348.993866,1.552540541,348.993866,1.637981415,348.993866,1.63459456,
347.9833374,1.534928799,347.9833374,1.634669542,347.9833374,1.716512799,347.9833374,1.713219643,
347.0115356,1.614746571,347.0115356,1.71470511,347.0115356,1.790736794,347.0115356,1.80055666,
346.0007629,1.694800615,346.0007629,1.793623447,346.0007629,1.875161052,346.0007629,1.877188921,
344.9898071,1.784766197,344.9898071,1.888831615,344.9898071,1.971893191,344.9898071,1.959081411,
344.0175781,1.87844789,344.0175781,1.984830022,344.0175781,2.073765516,344.0175781,2.057462454,
343.0063782,1.980148792,343.0063782,2.090485573,343.0063782,2.178197622,343.0063782,2.171340227,
341.9950256,2.082422972,341.9950256,2.194115162,341.9950256,2.273812771,341.9950256,2.264945269,
340.9835205,2.194236517,340.9835205,2.327789307,340.9835205,2.38125515,340.9835205,2.388147593,
340.0107727,2.308029652,340.0107727,2.436540365,340.0107727,2.499257803,340.0107727,2.506690025,
338.9990234,2.439310312,338.9990234,2.572209597,338.9990234,2.641003609,338.9990234,2.639002323,
337.9871216,2.566511154,337.9871216,2.691095114,337.9871216,2.847823381,337.9871216,2.72254324,
337.0139771,2.712560654,337.0139771,2.891357899,337.0139771,2.968693495,337.0139771,2.908858776,
336.0018005,2.852585077,336.0018005,3.049603939,336.0018005,3.118213415,336.0018005,3.025953531,
334.9894714,2.961194277,334.9894714,3.10713768,334.9894714,3.32972002,334.9894714,3.218031168,
334.0159607,3.175173998,334.0159607,3.325312138,334.0159607,3.469186544,334.0159607,3.559192419,
333.0033875,3.466392279,333.0033875,3.713526487,333.0033875,3.591960669,333.0033875,3.349192142,
331.9906616,3.311008215,331.9906616,3.724913597,331.9906616,3.785801411,331.9906616,3.704380035,
331.0167542,3.778851509,331.0167542,3.397853613,331.0167542,3.981559753,331.0167542,4.539440632,
330.0037842,3.644224644,330.0037842,5.097486019,330.0037842,10,330.0037842,10,
328.9906311,5.378735065,328.9906311,10,328.9906311,10,328.9906311,10,
328.0163574,3.877223015,328.0163574,10,328.0163574,10,328.0163574,4.251740456,
327.0029602,10,327.0029602,10,327.0029602,10,327.0029602,10,
325.9894714,10,325.9894714,10,325.9894714,10,325.9894714,10,
325.014801,10,325.014801,10,325.014801,10,325.014801,10,
324.0010376,10,324.0010376,10,324.0010376,10,324.0010376,4.61362505,
322.9871216,10,322.9871216,10,322.9871216,10,322.9871216,10,
322.0121155,10,322.0121155,10,322.0121155,10,322.0121155,10,
320.9979248,10,320.9979248,10,320.9979248,10,320.9979248,10,
319.9836121,10,319.9836121,10,319.9836121,10,319.9836121,10,
319.0082092,10,319.0082092,10,319.0082092,10,319.0082092,10,
317.9936523,10,317.9936523,10,317.9936523,10,317.9936523,10,
317.0180054,10,317.0180054,10,317.0180054,10,317.0180054,10,
316.0032043,10,316.0032043,10,316.0032043,10,316.0032043,10,
314.9882507,10,314.9882507,10,314.9882507,10,314.9882507,10,
314.0122375,10,314.0122375,10,314.0122375,10,314.0122375,10,
312.9970093,10,312.9970093,10,312.9970093,10,312.9970093,10,
311.98172,4.594530582,311.98172,10,311.98172,10,311.98172,10,
311.0053406,10,311.0053406,4.357642651,311.0053406,10,311.0053406,10,
309.9897461,10,309.9897461,10,309.9897461,10,309.9897461,10,
309.0131226,10,309.0131226,10,309.0131226,10,309.0131226,4.063456535,
307.997345,10,307.997345,10,307.997345,10,307.997345,10,
306.9813843,10,306.9813843,10,306.9813843,10,306.9813843,10,
306.004364,10,306.004364,10,306.004364,10,306.004364,10,
304.9881897,10,304.9881897,10,304.9881897,10,304.9881897,10,
304.0110168,10,304.0110168,10,304.0110168,10,304.0110168,10,
302.9945679,4.758786201,302.9945679,10,302.9945679,10,302.9945679,10,
302.0171204,4.126981258,302.0171204,10,302.0171204,10,302.0171204,10,
301.0004883,10,301.0004883,10,301.0004883,10,301.0004883,10,
299.9836426,10,299.9836426,10,299.9836426,10,299.9836426,10,
299.0058594,10,299.0058594,10,299.0058594,10,299.0058594,10,
297.9888306,10,297.9888306,10,297.9888306,10,297.9888306,10,
297.0107727,10,297.0107727,10,297.0107727,10,297.0107727,10,
295.9935303,10,295.9935303,10,295.9935303,10,295.9935303,10,
295.0152588,10,295.0152588,10,295.0152588,10,295.0152588,10,
293.9977722,10,293.9977722,10,293.9977722,10,293.9977722,10,
293.0192566,10,293.0192566,10,293.0192566,10,293.0192566,10,
292.0015259,10,292.0015259,10,292.0015259,10,292.0015259,10,
290.9836426,10,290.9836426,10,290.9836426,10,290.9836426,10,
290.0048523,10,290.0048523,10,290.0048523,4.463851452,290.0048523,5.018564701,
288.9867554,10,288.9867554,10,288.9867554,10,288.9867554,10,
288.0076904,10,288.0076904,10,288.0076904,10,288.0076904,10,
286.9893799,10,286.9893799,10,286.9893799,10,286.9893799,10,
286.0101013,10,286.0101013,10,286.0101013,10,286.0101013,10,
284.9915771,10,284.9915771,10,284.9915771,10,284.9915771,10,
284.012085,10,284.012085,10,284.012085,10,284.012085,10,
282.9932861,10,282.9932861,10,282.9932861,10,282.9932861,10,
282.0135803,10,282.0135803,10,282.0135803,10,282.0135803,10,
280.9945679,4.149265766,280.9945679,10,280.9945679,4.831732273,280.9945679,4.738686085,
280.0146484,10,280.0146484,10,280.0146484,5.110137463,280.0146484,4.291743279,
278.9954224,10,278.9954224,10,278.9954224,10,278.9954224,10,
278.0153198,10,278.0153198,10,278.0153198,10,278.0153198,10,
276.9958496,10,276.9958496,10,276.9958496,5.428440094,276.9958496,10,
276.0154724,10,276.0154724,10,276.0154724,10,276.0154724,4.174681664,
274.9958191,10,274.9958191,10,274.9958191,10,274.9958191,10,
274.0152588,10,274.0152588,10,274.0152588,10,274.0152588,10,
272.9953613,10,272.9953613,10,272.9953613,10,272.9953613,10,
272.0145569,10,272.0145569,10,272.0145569,10,272.0145569,10,
270.9944763,4.269574165,270.9944763,4.196462631,270.9944763,10,270.9944763,10,
270.0134888,4.272486687,270.0134888,10,270.0134888,10,270.0134888,10,
268.9931641,4.756821156,268.9931641,10,268.9931641,10,268.9931641,10,
268.0119629,10,268.0119629,10,268.0119629,10,268.0119629,10,
266.9914551,10,266.9914551,10,266.9914551,4.733392715,266.9914551,4.377036095,
266.0100403,10,266.0100403,10,266.0100403,4.392138004,266.0100403,10,
264.9892883,10,264.9892883,10,264.9892883,10,264.9892883,10,
264.0076599,10,264.0076599,10,264.0076599,10,264.0076599,10,
262.9866943,10,262.9866943,10,262.9866943,10,262.9866943,10,
262.0048828,10,262.0048828,10,262.0048828,10,262.0048828,10,
260.9837341,10,260.9837341,10,260.9837341,10,260.9837341,10,
260.001709,4.303725243,260.001709,5.423875809,260.001709,4.889151573,260.001709,10,
259.0196533,10,259.0196533,10,259.0196533,10,259.0196533,10,
257.9981384,10,257.9981384,10,257.9981384,10,257.9981384,10,
257.0158386,10,257.0158386,10,257.0158386,4.119836807,257.0158386,10,
255.9941406,10,255.9941406,10,255.9941406,10,255.9941406,10,
255.011673,10,255.011673,10,255.011673,10,255.011673,10,
253.9897461,10,253.9897461,10,253.9897461,10,253.9897461,10,
253.0070496,10,253.0070496,10,253.0070496,10,253.0070496,10,
251.9849548,10,251.9849548,10,251.9849548,10,251.9849548,10,
251.0020752,10,251.0020752,10,251.0020752,10,251.0020752,10,
250.0190887,10,250.0190887,10,250.0190887,10,250.0190887,10,
248.9966736,10,248.9966736,10,248.9966736,10,248.9966736,10,
248.0135193,10,248.0135193,5.225547314,248.0135193,10,248.0135193,10,
246.9909363,10,246.9909363,10,246.9909363,10,246.9909363,10,
246.0075531,10,246.0075531,10,246.0075531,10,246.0075531,10,
244.9847412,10,244.9847412,10,244.9847412,10,244.9847412,10,
244.0011902,10,244.0011902,10,244.0011902,10,244.0011902,10,
243.0175476,10,243.0175476,10,243.0175476,10,243.0175476,10,
241.9944458,10,241.9944458,10,241.9944458,10,241.9944458,10,
241.0106201,10,241.0106201,10,241.0106201,10,241.0106201,10,
239.9873657,5.325543404,239.9873657,10,239.9873657,10,239.9873657,4.090540886,
239.0033417,4.395710468,239.0033417,10,239.0033417,10,239.0033417,4.424798012,
238.0192261,10,238.0192261,10,238.0192261,10,238.0192261,10,
236.9956665,10,236.9956665,10,236.9956665,10,236.9956665,10,
236.0113678,10,236.0113678,10,236.0113678,10,236.0113678,10,
234.9876099,10,234.9876099,10,234.9876099,10,234.9876099,10,
234.0031586,10,234.0031586,10,234.0031586,10,234.0031586,10,
233.0186005,10,233.0186005,10,233.0186005,10,233.0186005,10,
231.9945526,10,231.9945526,10,231.9945526,10,231.9945526,10,
231.0098114,10,231.0098114,10,231.0098114,10,231.0098114,10,
229.9855957,10,229.9855957,10,229.9855957,10,229.9855957,10,
229.0006714,10,229.0006714,5.20052433,229.0006714,10,229.0006714,10,
228.0157013,4.188324451,228.0157013,4.469290257,228.0157013,4.145019531,228.0157013,4.357766151,
226.9911957,4.354538441,226.9911957,4.508160114,226.9911957,4.304377556,226.9911957,4.887487888,
226.0059967,4.395809174,226.0059967,10,226.0059967,10,226.0059967,10,
224.9813385,4.548989296,224.9813385,10,224.9813385,4.339507103,224.9813385,4.107665062,
223.9959869,4.339580536,223.9959869,10,223.9959869,4.980703831,223.9959869,4.260754108,
223.0105438,10,223.0105438,4.352796555,223.0105438,4.632782936,223.0105438,10,
221.9855957,4.74578619,221.9855957,10,221.9855957,10,221.9855957,10,
221,3.816227436,221,10,221,10,221,4.683465004,
220.0142975,10,220.0142975,10,220.0142975,10,220.0142975,10,
218.9891205,10,218.9891205,10,218.9891205,10,218.9891205,10,
218.0032501,3.886433601,218.0032501,3.904922724,218.0032501,3.779598475,218.0032501,3.780816555,
217.0173187,10,217.0173187,10,217.0173187,10,217.0173187,10,
215.9918518,3.915623665,215.9918518,3.848678589,215.9918518,3.771309853,215.9918518,4.012737274,
215.0057373,10,215.0057373,10,215.0057373,10,215.0057373,10,
214.0195618,3.653911829,214.0195618,3.825252771,214.0195618,3.833883524,214.0195618,4.981163502,
212.9938354,10,212.9938354,10,212.9938354,10,212.9938354,10,
212.0074921,3.86613059,212.0074921,4.108578682,212.0074921,4.481914043,212.0074921,4.013360977,
210.9815826,4.239521027,210.9815826,3.634277582,210.9815826,3.759218216,210.9815826,4.288038254,
209.9950714,3.718353748,209.9950714,3.844283581,209.9950714,4.358530521,209.9950714,3.857449293,
209.0084534,3.626502275,209.0084534,3.8729105,209.0084534,4.022119999,209.0084534,3.836934328,
207.9823303,10,207.9823303,10,207.9823303,10,207.9823303,10,
206.995575,4.561139107,206.995575,10,206.995575,10,206.995575,10,
206.0087585,3.720697641,206.0087585,3.636354208,206.0087585,5.249475956,206.0087585,4.314047337,
204.9823456,3.640301466,204.9823456,4.545375824,204.9823456,4.129981041,204.9823456,4.180309296,
203.9953613,3.960558414,203.9953613,4.444295406,203.9953613,3.948336363,203.9953613,3.749531031,
203.0082855,3.568904877,203.0082855,3.899426937,203.0082855,3.733429909,203.0082855,3.934674978,
201.9816742,3.807393074,201.9816742,3.519465923,201.9816742,3.679212093,201.9816742,3.631151438,
200.9944458,3.848905802,200.9944458,4.324757099,200.9944458,3.725696087,200.9944458,3.723338366,
200.0071564,10,200.0071564,4.148451805,200.0071564,4.116033554,200.0071564,4.079663277,

LN46_0.75_1_0.5mL_s_0.5mL_Ti_2mL_H2O_DF6_6h,
LN46_0.75_1_0.5mL_s_0.5mL_Ti_2mL_H2O_DF6_6h
Collection Time: 2/1/2024 3:48:10 PM
Operator Name  :
Scan Version 5.0.0.999
Parameter List :
Instrument  Cary 60
Instrument Version  2.00
Start (nm)  800.0
Stop (nm)  200.0
X Mode  Nanometers
Y Mode  Abs
UV-Vis Scan Rate (nm/min)  600.00
UV-Vis Data Interval (nm)  1.00
UV-Vis Ave. Time (sec)  0.1000
Beam Mode  Dual Beam
Baseline Correction  On
Baseline Type  Baseline correction
Baseline File Name
Baseline Std Ref File Name
Cycle Mode  Off
Method Log     :
Method Name    :
Date/Time stamp: 2/1/2024 9:15:53 AM
Method Modifications:
UVVIS SAT Changed: 2/1/2024 2:15:20 PM, Old:0.0125, New:0.1000
Common SAT Changed: 2/1/2024 2:15:20 PM, Old:0.0125, New:0.1000
Common Interval nm Changed: 2/1/2024 2:15:23 PM, Old:     5.00, New:     1.00
Baseline Correction Changed: 2/1/2024 2:15:23 PM, Old:0, New:1
End Method Modifications
<Current Wavelength> , 202.0

LN46_0.75_2_0.5mL_s_0.5mL_Ti_2mL_H2O_DF6_6h,
LN46_0.75_2_0.5mL_s_0.5mL_Ti_2mL_H2O_DF6_6h
Collection Time: 2/1/2024 3:50:26 PM
Operator Name  :
Scan Version 5.0.0.999
Parameter List :
Instrument  Cary 60
Instrument Version  2.00
Start (nm)  800.0
Stop (nm)  200.0
X Mode  Nanometers
Y Mode  Abs
UV-Vis Scan Rate (nm/min)  600.00
UV-Vis Data Interval (nm)  1.00
UV-Vis Ave. Time (sec)  0.1000
Beam Mode  Dual Beam
Baseline Correction  On
Baseline Type  Baseline correction
Baseline File Name
Baseline Std Ref File Name
Cycle Mode  Off
Method Log     :
Method Name    :
Date/Time stamp: 2/1/2024 9:15:53 AM
Method Modifications:
UVVIS SAT Changed: 2/1/2024 2:15:20 PM, Old:0.0125, New:0.1000
Common SAT Changed: 2/1/2024 2:15:20 PM, Old:0.0125, New:0.1000
Common Interval nm Changed: 2/1/2024 2:15:23 PM, Old:     5.00, New:     1.00
Baseline Correction Changed: 2/1/2024 2:15:23 PM, Old:0, New:1
End Method Modifications
<Current Wavelength> , 200.0

LN46_0.75_3_0.5mL_s_0.5mL_Ti_2mL_H2O_DF6_6h,
LN46_0.75_3_0.5mL_s_0.5mL_Ti_2mL_H2O_DF6_6h
Collection Time: 2/1/2024 3:52:45 PM
Operator Name  :
Scan Version 5.0.0.999
Parameter List :
Instrument  Cary 60
Instrument Version  2.00
Start (nm)  800.0
Stop (nm)  200.0
X Mode  Nanometers
Y Mode  Abs
UV-Vis Scan Rate (nm/min)  600.00
UV-Vis Data Interval (nm)  1.00
UV-Vis Ave. Time (sec)  0.1000
Beam Mode  Dual Beam
Baseline Correction  On
Baseline Type  Baseline correction
Baseline File Name
Baseline Std Ref File Name
Cycle Mode  Off
Method Log     :
Method Name    :
Date/Time stamp: 2/1/2024 9:15:53 AM
Method Modifications:
UVVIS SAT Changed: 2/1/2024 2:15:20 PM, Old:0.0125, New:0.1000
Common SAT Changed: 2/1/2024 2:15:20 PM, Old:0.0125, New:0.1000
Common Interval nm Changed: 2/1/2024 2:15:23 PM, Old:     5.00, New:     1.00
Baseline Correction Changed: 2/1/2024 2:15:23 PM, Old:0, New:1
End Method Modifications
<Current Wavelength> , 210.0

LN46_0.75_4_0.5mL_s_0.5mL_Ti_2mL_H2O_DF6_6h,
LN46_0.75_4_0.5mL_s_0.5mL_Ti_2mL_H2O_DF6_6h
Collection Time: 2/1/2024 3:54:59 PM
Operator Name  :
Scan Version 5.0.0.999
Parameter List :
Instrument  Cary 60
Instrument Version  2.00
Start (nm)  800.0
Stop (nm)  200.0
X Mode  Nanometers
Y Mode  Abs
UV-Vis Scan Rate (nm/min)  600.00
UV-Vis Data Interval (nm)  1.00
UV-Vis Ave. Time (sec)  0.1000
Beam Mode  Dual Beam
Baseline Correction  On
Baseline Type  Baseline correction
Baseline File Name
Baseline Std Ref File Name
Cycle Mode  Off
Method Log     :
Method Name    :
Date/Time stamp: 2/1/2024 9:15:53 AM
Method Modifications:
UVVIS SAT Changed: 2/1/2024 2:15:20 PM, Old:0.0125, New:0.1000
Common SAT Changed: 2/1/2024 2:15:20 PM, Old:0.0125, New:0.1000
Common Interval nm Changed: 2/1/2024 2:15:23 PM, Old:     5.00, New:     1.00
Baseline Correction Changed: 2/1/2024 2:15:23 PM, Old:0, New:1
End Method Modifications
<Current Wavelength> , 210.0

