LN46_0.75_1_0.5mL_s_0.5mL_Ti_1h,,LN46_0.75_2_0.5mL_s_0.5mL_Ti_1h,,LN46_0.75_2_0.5mL_s_0.5mL_Ti_1h_r,,LN46_0.75_3_0.5mL_s_0.5mL_Ti_1h,,LN46_0.75_3_0.5mL_s_0.5mL_Ti_1h_r,,LN46_0.75_4_0.5mL_s_0.5mL_Ti_1h,,
Wavelength (nm),Abs,Wavelength (nm),Abs,Wavelength (nm),Abs,Wavelength (nm),Abs,Wavelength (nm),Abs,Wavelength (nm),Abs,
800.0109253,0.006409788504,800.0109253,0.02009799704,800.0109253,0.03144017607,800.0109253,0.01852077246,800.0109253,0.01807179302,800.0109253,-0.001872328459,
799.007019,0.006556220818,799.007019,0.02030181885,799.007019,0.03365981206,799.007019,0.01885600761,799.007019,0.0181294661,799.007019,-0.001383934403,
798.0026855,0.006209309679,798.0026855,0.02065341547,798.0026855,0.03342666849,798.0026855,0.01833428256,798.0026855,0.01867594011,798.0026855,-0.000960703881,
796.9979248,0.007012439892,796.9979248,0.02151112258,796.9979248,0.03368101269,796.9979248,0.01803539135,796.9979248,0.01930525899,796.9979248,-0.0008550513885,
795.9926758,0.006512467284,795.9926758,0.0206956584,795.9926758,0.03182962909,795.9926758,0.01648901962,795.9926758,0.01906668581,795.9926758,-0.001742301858,
794.9871826,0.005727309268,794.9871826,0.02024922706,794.9871826,0.03213758394,794.9871826,0.01600109413,794.9871826,0.01841040887,794.9871826,-0.001922173775,
794.0158691,0.006556457374,794.0158691,0.02048676647,794.0158691,0.03307865933,794.0158691,0.01779284887,794.0158691,0.01804899052,794.0158691,-0.001473257318,
793.0095215,0.006509682164,793.0095215,0.02048747241,793.0095215,0.03295015171,793.0095215,0.01936038956,793.0095215,0.01838764176,793.0095215,-0.002024938818,
792.0026855,0.006221257616,792.0026855,0.02144154906,792.0026855,0.03181127459,792.0026855,0.02152425982,792.0026855,0.01797603071,792.0026855,-0.002754264278,
790.9956055,0.00651117973,790.9956055,0.02136203647,790.9956055,0.03238208219,790.9956055,0.02231223322,790.9956055,0.01824008301,790.9956055,-0.002544988645,
789.9880371,0.006460047793,789.9880371,0.02125855908,789.9880371,0.03311782703,789.9880371,0.02342715114,789.9880371,0.01834762283,789.9880371,-0.002317691455,
789.0148926,0.005956170615,789.0148926,0.02051336132,789.0148926,0.03232438117,789.0148926,0.02325965278,789.0148926,0.01812992431,789.0148926,-0.002896279795,
788.0064697,0.005484569818,788.0064697,0.02009704709,788.0064697,0.03182419762,788.0064697,0.02329808101,788.0064697,0.01756170951,788.0064697,-0.003159201937,
786.9977417,0.005341433454,786.9977417,0.02034522034,786.9977417,0.03225564957,786.9977417,0.02474419959,786.9977417,0.01849616505,786.9977417,-0.002405895852,
785.9886475,0.005793412682,785.9886475,0.02059915289,785.9886475,0.03215581551,785.9886475,0.02587492019,785.9886475,0.01862392388,785.9886475,-0.003228839021,
785.013855,0.006037532818,785.013855,0.02010314725,785.013855,0.03218051419,785.013855,0.02636843361,785.013855,0.01767703518,785.013855,-0.00309299794,
784.0039063,0.005596286152,784.0039063,0.01965629496,784.0039063,0.03145667911,784.0039063,0.02770785615,784.0039063,0.01784794964,784.0039063,-0.003290860448,
782.9935913,0.005470911972,782.9935913,0.02045417763,782.9935913,0.03217708319,782.9935913,0.02867352031,782.9935913,0.01780236885,782.9935913,-0.00343578239,
781.9829102,0.005894450005,781.9829102,0.02054497786,781.9829102,0.03277014941,781.9829102,0.03011934273,781.9829102,0.01828252338,781.9829102,-0.003223443171,
781.0066528,0.005908856168,781.0066528,0.02056384087,781.0066528,0.03158772364,781.0066528,0.03023052961,781.0066528,0.01777726226,781.0066528,-0.003118648194,
779.9951782,0.005585744977,779.9951782,0.02054370381,779.9951782,0.03179637343,779.9951782,0.0310921967,779.9951782,0.017873412,779.9951782,-0.003002670826,
778.9832153,0.006369333249,778.9832153,0.02138365246,778.9832153,0.03305611759,778.9832153,0.0313170217,778.9832153,0.01866767183,778.9832153,-0.002829418518,
778.0058594,0.006104995962,778.0058594,0.01965261064,778.0058594,0.03175303712,778.0058594,0.03036087379,778.0058594,0.01733923331,778.0058594,-0.00355164404,
776.9931641,0.005442549009,776.9931641,0.01985630579,776.9931641,0.03199904412,776.9931641,0.03033550084,776.9931641,0.01759195328,776.9931641,-0.002941173967,
776.0150757,0.005802751984,776.0150757,0.02021773905,776.0150757,0.03243719786,776.0150757,0.03077767231,776.0150757,0.01788711362,776.0150757,-0.003156580729,
775.0015869,0.005250900052,775.0015869,0.02015043423,775.0015869,0.03251089901,775.0015869,0.03130327538,775.0015869,0.01747252792,775.0015869,-0.003434190061,
773.987793,0.005171466153,773.987793,0.02040365711,773.987793,0.03252004832,773.987793,0.03192618489,773.987793,0.01778734848,773.987793,-0.003490430303,
773.0085449,0.005296544172,773.0085449,0.02009639703,773.0085449,0.03279326111,773.0085449,0.03272464871,773.0085449,0.01749753579,773.0085449,-0.003852195805,
771.9938965,0.005510942545,771.9938965,0.02006530017,771.9938965,0.03166590258,771.9938965,0.03164151311,771.9938965,0.01783956029,771.9938965,-0.002740065334,
771.013916,0.004988656379,771.013916,0.01915868558,771.013916,0.03203031048,771.013916,0.02989355661,771.013916,0.01706520095,771.013916,-0.003876620904,
769.9984741,0.005101502407,769.9984741,0.01979650557,769.9984741,0.03181823716,769.9984741,0.02943823859,769.9984741,0.01796626486,769.9984741,-0.003201859305,
768.9827881,0.004968363326,768.9827881,0.01986985467,768.9827881,0.03143344074,768.9827881,0.02915466763,768.9827881,0.01734976657,768.9827881,-0.003897042712,
768.0015869,0.00587495463,768.0015869,0.02031367272,768.0015869,0.03268066421,768.0015869,0.02873225883,768.0015869,0.01773697324,768.0015869,-0.003338590963,
766.9850464,0.00480369851,766.9850464,0.01968914829,766.9850464,0.0315557681,766.9850464,0.02763808332,766.9850464,0.01703079417,766.9850464,-0.003500444815,
766.0032959,0.005513302051,766.0032959,0.01992787421,766.0032959,0.03143285587,766.0032959,0.0267244298,766.0032959,0.01684149913,766.0032959,-0.003615416354,
764.9859619,0.004938986152,764.9859619,0.01944484375,764.9859619,0.05311152339,764.9859619,0.0260444209,764.9859619,0.01687088422,764.9859619,-0.003605404403,
764.0033569,0.004904296249,764.0033569,0.01998636313,764.0033569,0.1847143471,764.0033569,0.02633135766,764.0033569,0.01722138375,764.0033569,-0.004044378176,
762.9852905,0.005460819695,762.9852905,0.02039334737,762.9852905,0.1092369631,762.9852905,0.02621577308,762.9852905,0.01716464013,762.9852905,-0.003314443631,
762.0020142,0.005085054319,762.0020142,0.02056655474,762.0020142,-0.04701342434,762.0020142,0.02451322228,762.0020142,0.01720834896,762.0020142,-0.003319838317,
760.9831543,0.00553854974,760.9831543,0.02007462643,760.9831543,-0.04714410007,760.9831543,0.0231026765,760.9831543,0.01738522202,760.9831543,-0.003457251936,
759.9991455,0.005485120229,759.9991455,0.02042831853,759.9991455,-0.04722328112,759.9991455,0.02186250314,759.9991455,0.01680845395,759.9991455,-0.003260030644,
759.0147095,0.005084058736,759.0147095,0.02047751285,759.0147095,-0.04732868448,759.0147095,0.02216477878,759.0147095,0.01741410606,759.0147095,-0.003477231134,
757.994812,0.005321071483,757.994812,0.02027702704,757.994812,-0.04682554677,757.994812,0.0219524838,757.994812,0.01772171259,757.994812,-0.003083333839,
757.0096436,0.005067349412,757.0096436,0.01949942298,757.0096436,-0.04764899984,757.0096436,0.02120473608,757.0096436,0.01678292081,757.0096436,-0.003418934764,
755.9889526,0.005393272731,755.9889526,0.01994660124,755.9889526,-0.0475692451,755.9889526,0.01981937326,755.9889526,0.01680891216,755.9889526,-0.00357505912,
755.0030518,0.005724056624,755.0030518,0.02003333904,755.0030518,-0.04672667012,755.0030518,0.01852606796,755.0030518,0.01763551682,755.0030518,-0.003461977234,
754.0168457,0.00535639748,754.0168457,0.02028901502,754.0168457,-0.04701570049,754.0168457,0.01688794605,754.0168457,0.01682427712,754.0168457,-0.003117311746,
752.9949951,0.004594619386,752.9949951,0.01999023929,752.9949951,-0.04737515375,752.9949951,0.01502634771,752.9949951,0.01676510833,752.9949951,-0.003625017358,
752.0080566,0.004837542772,752.0080566,0.02022213303,752.0080566,-0.04731586948,752.0080566,0.01470524725,752.0080566,0.01714805141,752.0080566,-0.003778707003,
750.9854736,0.005418670364,750.9854736,0.02034793235,750.9854736,-0.04714883491,750.9854736,0.01441777963,750.9854736,0.01736151241,750.9854736,-0.003769930452,
749.9978027,0.004789329134,749.9978027,0.019802358,749.9978027,-0.0475050658,749.9978027,0.01431128848,749.9978027,0.01669508219,749.9978027,-0.004047404509,
749.0097046,0.004918250721,749.0097046,0.0196658019,749.0097046,-0.0475278534,749.0097046,0.01473633759,749.0097046,0.0166171845,749.0097046,-0.003654229688,
747.986084,0.004910160787,747.986084,0.01963798515,747.986084,-0.04746325314,747.986084,0.01562197786,747.986084,0.01704102382,747.986084,-0.00382684567,
746.9972534,0.004599878099,746.9972534,0.01967769116,746.9972534,-0.04759049416,746.9972534,0.01613263413,746.9972534,0.01670896262,746.9972534,-0.003998212982,
746.0082397,0.00504307216,746.0082397,0.01928520575,746.0082397,-0.04748817533,746.0082397,0.01675520837,746.0082397,0.01626244187,746.0082397,-0.004103668034,
744.9833984,0.005009474233,744.9833984,0.01998910122,744.9833984,-0.0475874804,744.9833984,0.01726733521,744.9833984,0.01636618748,744.9833984,-0.003629175946,
743.9935913,0.004608930089,743.9935913,0.01978401653,743.9935913,-0.04765697941,743.9935913,0.01794217341,743.9935913,0.01612771861,743.9935913,-0.003796053817,
743.003418,0.005275870208,743.003418,0.01965328865,743.003418,-0.04735286906,743.003418,0.01869331673,743.003418,0.01723078452,743.003418,-0.003475741716,
742.0129395,0.004953622352,742.0129395,0.02017003857,742.0129395,-0.04746905342,742.0129395,0.01896626875,742.0129395,0.0171810668,742.0129395,-0.004078024533,
740.9866333,0.005070309155,740.9866333,0.02016529255,740.9866333,-0.04716077074,740.9866333,0.02010550536,740.9866333,0.01664986461,740.9866333,-0.003319530049,
739.9954224,0.005454738159,739.9954224,0.01988673583,739.9954224,-0.04711367562,739.9954224,0.02015574835,739.9954224,0.01750944927,739.9954224,-0.003338539507,
739.0037842,0.00517987553,739.0037842,0.01952381805,739.0037842,-0.04693480581,739.0037842,0.02102469839,739.0037842,0.01717210002,739.0037842,-0.003498339094,
738.0119019,0.005168479867,738.0119019,0.01945778355,738.0119019,-0.04715905339,738.0119019,0.02156786621,738.0119019,0.01698220335,738.0119019,-0.003739545355,
736.9841919,0.005069785286,736.9841919,0.02046435326,736.9841919,-0.04646694288,736.9841919,0.02261492983,736.9841919,0.0171950981,736.9841919,-0.00345011265,
735.9914551,0.004943227861,735.9914551,0.01966967434,735.9914551,-0.04670077562,735.9914551,0.02343108505,735.9914551,0.01688740775,735.9914551,-0.00381293823,
734.9985352,0.005081439856,734.9985352,0.01981652901,734.9985352,-0.04601743072,734.9985352,0.02426106855,734.9985352,0.01722434722,734.9985352,-0.003600578057,
734.005188,0.005170366261,734.005188,0.0204858724,734.005188,0.01029759739,734.005188,0.02486169524,734.005188,0.01692909747,734.005188,-0.003775781486,
733.0115356,0.005506276153,733.0115356,0.01995711774,733.0115356,0.008308930323,733.0115356,0.02569310181,733.0115356,0.01722817123,733.0115356,-0.003447082359,
732.0174561,0.005466455594,732.0174561,0.0204152409,732.0174561,-0.0007051305147,732.0174561,0.02581126615,732.0174561,0.01765347086,732.0174561,-0.003215220757,
730.9875488,0.005749526434,730.9875488,0.02010973543,730.9875488,-0.0008209994412,730.9875488,0.02649476193,730.9875488,0.01752982475,730.9875488,-0.003101222683,
729.9928589,0.006076670717,729.9928589,0.02048896439,729.9928589,-0.0006514234119,729.9928589,0.02634098381,729.9928589,0.01794584095,729.9928589,-0.003004059196,
728.9976807,0.005871858448,728.9976807,0.02076432481,728.9976807,-0.0009136929875,728.9976807,0.02628859133,728.9976807,0.01776340045,728.9976807,-0.003082151525,
728.0023193,0.005946644116,728.0023193,0.02068330534,728.0023193,-0.001613835339,728.0023193,0.02552379295,728.0023193,0.01825924963,728.0023193,-0.00299501,
727.0065308,0.006415489595,727.0065308,0.02130409516,727.0065308,-0.001497197547,727.0065308,0.02457400225,727.0065308,0.01843436435,727.0065308,-0.002623626729,
726.010437,0.006106256042,726.010437,0.02129727043,726.010437,-0.001892844564,726.010437,0.02450067736,726.010437,0.01886503771,726.010437,-0.002340400824,
725.0139771,0.0065205344,725.0139771,0.02113833837,725.0139771,-0.002308216179,725.0139771,0.02344439179,725.0139771,0.01795560867,725.0139771,-0.0026421519,
724.0171509,0.005935044959,724.0171509,0.0212395303,724.0171509,-0.001996956533,724.0171509,0.02339636162,724.0171509,0.01834870316,724.0171509,-0.002679663245,
722.984436,0.00629239995,722.984436,0.02101722732,722.984436,-0.00205281633,722.984436,0.02247481421,722.984436,0.01831724495,722.984436,-0.002241933718,
721.9869385,0.006388142239,721.9869385,0.0211777743,721.9869385,-0.002116757678,721.9869385,0.02205315791,721.9869385,0.01821346581,721.9869385,-0.002454701811,
720.9890747,0.005846644286,720.9890747,0.0213295985,720.9890747,-0.002059205668,720.9890747,0.02088832669,720.9890747,0.01868472435,720.9890747,-0.002142671496,
719.9909058,0.00693465583,719.9909058,0.02218305692,719.9909058,-0.001688361983,719.9909058,0.02116323262,719.9909058,0.01860501058,719.9909058,-0.001793708885,
718.9923096,0.006487898994,718.9923096,0.02216022834,718.9923096,-0.00155668112,718.9923096,0.02024526708,718.9923096,0.01890978403,718.9923096,-0.002154108137,
717.9935913,0.006585234776,717.9935913,0.02214884199,717.9935913,-0.001304245554,717.9935913,0.02024480514,717.9935913,0.01892600581,717.9935913,-0.001641842304,
716.9943848,0.006830194499,716.9943848,0.02162156999,716.9943848,-0.001658398076,716.9943848,0.01976662315,716.9943848,0.01833015122,716.9943848,-0.001740445616,
715.994812,0.006722156424,715.994812,0.02145106904,715.994812,-0.002036842518,715.994812,0.01961458661,715.994812,0.01847979426,715.994812,-0.00220062444,
714.9949341,0.006772767287,714.9949341,0.02201350592,714.9949341,-0.001626317506,714.9949341,0.01948661543,714.9949341,0.01903182268,714.9949341,-0.001684339368,
713.994751,0.007029645145,713.994751,0.02239617333,713.994751,-0.001260369201,713.994751,0.0197757259,713.994751,0.01885508932,713.994751,-0.001835520845,
712.9941406,0.00731947599,712.9941406,0.02249937691,712.9941406,-0.001035084366,712.9941406,0.01911956817,712.9941406,0.0195610486,712.9941406,-0.00139673287,
711.9932861,0.007097631227,711.9932861,0.02204517648,711.9932861,-0.001417735824,711.9932861,0.01815821044,711.9932861,0.01905740984,711.9932861,-0.001563799917,
710.9921265,0.00718049705,710.9921265,0.02222825401,710.9921265,-0.001566121355,710.9921265,0.01780099422,710.9921265,0.01943585463,710.9921265,-0.001541256323,
709.9904785,0.006962037645,709.9904785,0.02244204655,709.9904785,-0.001099278918,709.9904785,0.01796448417,709.9904785,0.01918097772,709.9904785,-0.001499003265,
708.9885864,0.006708486006,708.9885864,0.02246889845,708.9885864,-0.002064100699,708.9885864,0.01737350225,708.9885864,0.01889531873,708.9885864,-0.002125000814,
707.9863892,0.007010098547,707.9863892,0.02274677157,707.9863892,-0.001525366795,707.9863892,0.01720447093,707.9863892,0.0191027429,707.9863892,-0.001860626624,
706.9838257,0.007189550437,706.9838257,0.02270244621,706.9838257,-0.001206679037,706.9838257,0.01712726429,706.9838257,0.0190548934,706.9838257,-0.001454630634,
706.0167236,0.006906092167,706.0167236,0.02311163023,706.0167236,-0.001423670212,706.0167236,0.01727956347,706.0167236,0.01955530792,706.0167236,-0.001239203732,
705.0135498,0.007086921949,705.0135498,0.0223362688,705.0135498,-0.001301768003,705.0135498,0.01618991606,705.0135498,0.01946133003,705.0135498,-0.001437809085,
704.0099487,0.006982082035,704.0099487,0.02301870845,704.0099487,-0.0008243065677,704.0099487,0.01655705087,704.0099487,0.01985459775,704.0099487,-0.001189641422,
703.0061035,0.007635660004,703.0061035,0.02305703238,703.0061035,-0.0008119563572,703.0061035,0.01637744904,703.0061035,0.01944901235,703.0061035,-0.001256032963,
702.0018311,0.007293782663,702.0018311,0.02265149914,702.0018311,-0.001087556244,702.0018311,0.01517844945,702.0018311,0.01937172934,702.0018311,-0.001586239203,
700.9973755,0.006268422119,700.9973755,0.02219169401,700.9973755,-0.00122722669,700.9973755,0.01483843289,700.9973755,0.01857869513,700.9973755,-0.001961447997,
699.9924927,0.007378239185,699.9924927,0.0225034114,699.9924927,-0.001012358349,699.9924927,0.01500483043,699.9924927,0.01919255778,699.9924927,-0.001392191509,
698.9872437,0.007322529797,698.9872437,0.02290165611,698.9872437,-0.0009047035128,698.9872437,0.01596567035,698.9872437,0.01956332289,698.9872437,-0.001505761989,
698.0175781,0.007785747759,698.0175781,0.0230697263,698.0175781,-0.000780278293,698.0175781,0.01548715774,698.0175781,0.0203170348,698.0175781,-0.001006366801,
697.0117798,0.007583236787,697.0117798,0.02257926203,697.0117798,-0.0005244435742,697.0117798,0.01539330464,697.0117798,0.02011629753,697.0117798,-0.001457262086,
696.0056152,0.007411994971,696.0056152,0.02268842794,696.0056152,-0.001418251893,696.0056152,0.01449359674,696.0056152,0.02009089291,696.0056152,-0.001408859971,
694.9990845,0.007561399601,694.9990845,0.02332361788,694.9990845,-0.0006804746808,694.9990845,0.01497157756,694.9990845,0.01998592913,694.9990845,-0.0006187513936,
693.9921875,0.007668987848,693.9921875,0.02259003371,693.9921875,-0.001047789818,693.9921875,0.01392853912,693.9921875,0.02033282258,693.9921875,-0.001028679893,
692.9850464,0.007178734057,692.9850464,0.02268608287,692.9850464,-0.001001253142,692.9850464,0.01380415726,692.9850464,0.01929483935,692.9850464,-0.00114787044,
692.0135498,0.007640797645,692.0135498,0.02331602573,692.0135498,-0.0007506652037,692.0135498,0.01383438054,692.0135498,0.01987410896,692.0135498,-0.001211996772,
691.0057373,0.007677313872,691.0057373,0.0231212955,691.0057373,-0.0003329729661,691.0057373,0.01402060594,691.0057373,0.01990979724,691.0057373,-0.0005759948399,
689.9975586,0.0073477244,689.9975586,0.02289655246,689.9975586,-0.0007169152377,689.9975586,0.01370348036,689.9975586,0.01925622486,689.9975586,-0.001368039171,
688.9891357,0.007522364613,688.9891357,0.02310262062,688.9891357,-0.0007081284421,688.9891357,0.01353165135,688.9891357,0.02037093788,688.9891357,-0.001047015074,
688.0162964,0.007509801537,688.0162964,0.02281554416,688.0162964,-0.001130830497,688.0162964,0.01324231736,688.0162964,0.01984497905,688.0162964,-0.0008949388866,
687.0072021,0.007487625815,687.0072021,0.0233521089,687.0072021,-0.000952438626,687.0072021,0.01313704811,687.0072021,0.01995264553,687.0072021,-0.001227588044,
685.9978027,0.007992255501,685.9978027,0.02351589873,685.9978027,-0.0002134032547,685.9978027,0.01320783794,685.9978027,0.02018845081,685.9978027,-0.0003419225395,
684.9880371,0.007513225544,684.9880371,0.02277164906,684.9880371,-0.001068912912,684.9880371,0.01306493487,684.9880371,0.02067008428,684.9880371,-0.001138162916,
684.0139771,0.007638399955,684.0139771,0.02304600365,684.0139771,-0.001072837971,684.0139771,0.01264914032,684.0139771,0.0198730249,684.0139771,-0.001084199524,
683.0036621,0.007623699494,683.0036621,0.02328311279,683.0036621,-0.000502983632,683.0036621,0.01254127081,683.0036621,0.01987340301,683.0036621,-0.0006778384559,
681.9929199,0.007491339464,681.9929199,0.02320678346,681.9929199,-0.000876080594,681.9929199,0.01292397268,681.9929199,0.01952335611,681.9929199,-0.001090861391,
681.0179443,0.007802588399,681.0179443,0.0231270548,681.0179443,-0.0005301832571,681.0179443,0.0126631055,681.0179443,0.01966038346,681.0179443,-0.000848902564,
680.0065918,0.007683611009,680.0065918,0.02380491421,680.0065918,-0.0007582107792,680.0065918,0.01277876366,680.0065918,0.01994803734,680.0065918,-0.001074025757,
678.9949951,0.007323740516,678.9949951,0.02262739278,678.9949951,-0.000671015121,678.9949951,0.01237032749,678.9949951,0.01972200722,678.9949951,-0.001266408945,
677.9829712,0.007919305004,677.9829712,0.02301092818,677.9829712,-0.0009466011543,677.9829712,0.01256642397,677.9829712,0.02032596059,677.9829712,-0.0009290883318,
677.0068359,0.007628310006,677.0068359,0.02332083322,677.0068359,-0.001161656925,677.0068359,0.01288221311,677.0068359,0.01990632899,677.0068359,-0.001136613893,
675.9942017,0.007432850078,675.9942017,0.02315607853,675.9942017,-0.001080842689,675.9942017,0.01206489094,675.9942017,0.01945621334,675.9942017,-0.001334543573,
675.0174561,0.007567273453,675.0174561,0.02378394268,675.0174561,-0.001241784892,675.0174561,0.01226710621,675.0174561,0.01977735199,675.0174561,-0.001264602179,
674.0042725,0.00769625837,674.0042725,0.02345198579,674.0042725,-0.0007005819352,674.0042725,0.01229147147,674.0042725,0.01982330158,674.0042725,-0.0009439665591,
672.9906006,0.007501900196,672.9906006,0.02342941985,672.9906006,-0.00102175877,672.9906006,0.01178323384,672.9906006,0.01975185983,672.9906006,-0.001251128735,
672.0130005,0.007166259456,672.0130005,0.02315394767,672.0130005,-0.001286385814,672.0130005,0.01161500812,672.0130005,0.01942194067,672.0130005,-0.001151691424,
670.9987793,0.007718918845,670.9987793,0.02287008427,670.9987793,-0.000898245431,670.9987793,0.01219431311,670.9987793,0.01996392012,670.9987793,-0.001022740151,
669.984314,0.007650888059,669.984314,0.02355478518,669.984314,-0.001155512407,669.984314,0.01242378447,669.984314,0.01946560666,669.984314,-0.00106726028,
669.0056763,0.00724661164,669.0056763,0.02341966517,669.0056763,-0.001401996589,669.0056763,0.01223331783,669.0056763,0.01986308023,669.0056763,-0.001092978753,
667.9906006,0.007593062241,667.9906006,0.02333951555,667.9906006,-0.001239565085,667.9906006,0.01208011433,667.9906006,0.01991871372,667.9906006,-0.001020880765,
667.0114136,0.007067451719,667.0114136,0.02338863164,667.0114136,-0.001185872359,667.0114136,0.01257337816,667.0114136,0.01977751404,667.0114136,-0.0008281304035,
665.9956665,0.007368128747,665.9956665,0.02363470197,665.9956665,-0.0009304315317,665.9956665,0.01272462308,665.9956665,0.02025188506,665.9956665,-0.000711229688,
665.0159302,0.007470981684,665.0159302,0.023055695,665.0159302,-0.001202600426,665.0159302,0.01178057399,665.0159302,0.01989811845,665.0159302,-0.0009608071996,
663.9995728,0.007212526631,663.9995728,0.02355136909,663.9995728,-0.001065401128,663.9995728,0.01244935766,663.9995728,0.0198921822,663.9995728,-0.0008556197281,
662.9829102,0.007682873402,662.9829102,0.02345638536,662.9829102,-0.0009546599467,662.9829102,0.01226084866,662.9829102,0.01963611692,662.9829102,-0.001153963385,
662.0021362,0.007622382604,662.0021362,0.02344474569,662.0021362,-0.0008523128345,662.0021362,0.01261835918,662.0021362,0.02027805708,662.0021362,-0.0006919499137,
660.9849243,0.006708170287,660.9849243,0.02331842855,660.9849243,-0.001275029499,660.9849243,0.01273027342,660.9849243,0.01994229294,660.9849243,-0.001086678356,
660.0036621,0.007615611888,660.0036621,0.02289393358,660.0036621,-0.000985085615,660.0036621,0.01269610226,660.0036621,0.01950372756,660.0036621,-0.001007451443,
658.9857788,0.007475722115,658.9857788,0.02309399471,658.9857788,-0.001049339189,658.9857788,0.01291127875,658.9857788,0.01994619519,658.9857788,-0.001070307335,
658.0039063,0.008074422367,658.0039063,0.023282649,658.0039063,-0.0005968824844,658.0039063,0.01350401249,658.0039063,0.0201978609,658.0039063,-0.0007176388172,
656.9853516,0.007773783058,656.9853516,0.02355355583,656.9853516,-0.0005861802492,656.9853516,0.01362424809,656.9853516,0.01992288791,656.9853516,-0.0007517505437,
656.0029297,0.008454394527,656.0029297,0.02406947128,656.0029297,-0.0001778002043,656.0029297,0.01352516282,656.0029297,0.02027461305,656.0029297,-0.0004300635483,
654.9838257,0.007861047983,654.9838257,0.02321601473,654.9838257,-0.001021138974,654.9838257,0.01300110295,654.9838257,0.02008858882,654.9838257,-0.0009028952336,
654.0007935,0.007998161949,654.0007935,0.02364426851,654.0007935,-0.0003327660379,654.0007935,0.01322868001,654.0007935,0.02065289952,654.0007935,-0.0003930299717,
653.0174561,0.007844020613,653.0174561,0.02346329764,653.0174561,-0.0007911307621,653.0174561,0.01357165817,653.0174561,0.02015726641,653.0174561,-0.0004535441112,
651.9974365,0.007982236333,651.9974365,0.02440031059,651.9974365,-0.0003334385401,651.9974365,0.01381212007,651.9974365,0.02041092701,651.9974365,-0.0004918653867,
651.0135498,0.007957400754,651.0135498,0.02415818535,651.0135498,-0.0008050834876,651.0135498,0.01403367892,651.0135498,0.02068235539,651.0135498,-0.0005926429876,
649.992981,0.00821928028,649.992981,0.02435488626,649.992981,-0.0003399050329,649.992981,0.01467332989,649.992981,0.0210490711,649.992981,-7.387227379E-005,
649.0084229,0.008163145743,649.0084229,0.02409844659,649.0084229,-0.0003486992791,649.0084229,0.01398483478,649.0084229,0.02074431255,649.0084229,-0.0004896934261,
647.9871826,0.008305923082,647.9871826,0.02396066859,647.9871826,-0.0003443539026,647.9871826,0.0141393533,647.9871826,0.02117046155,647.9871826,-0.0001166265138,
647.0021362,0.008139143698,647.0021362,0.02473214269,647.0021362,-2.971607501E-005,647.0021362,0.01490604505,647.0021362,0.0210868679,647.0021362,-0.0005286320229,
646.0167847,0.007996658795,646.0167847,0.0242526643,646.0167847,-0.0004714898532,646.0167847,0.01425599307,646.0167847,0.02053279243,646.0167847,-0.0004450622946,
644.9946899,0.007709564641,644.9946899,0.02344261482,644.9946899,-0.0009082683246,644.9946899,0.01419950183,644.9946899,0.02027450502,644.9946899,-0.0007152095786,
644.008728,0.008326767944,644.008728,0.02420301363,644.008728,-0.0003567691601,644.008728,0.01479407772,644.008728,0.02080541104,644.008728,-0.0003699082299,
642.9860229,0.007936546579,642.9860229,0.02455093712,642.9860229,-0.0005217546714,642.9860229,0.01452774927,642.9860229,0.02051344328,642.9860229,-0.0005192725803,
641.9995117,0.008562758565,641.9995117,0.02470931597,641.9995117,-3.618707706E-005,641.9995117,0.01527737733,641.9995117,0.02091994323,641.9995117,-0.0002365333203,
641.0126953,0.007848027162,641.0126953,0.02426509187,641.0126953,-0.0006189064588,641.0126953,0.01492688805,641.0126953,0.02041583881,641.0126953,-0.00051860034,
639.9891357,0.008018122055,639.9891357,0.02374396846,639.9891357,-0.0001152290424,639.9891357,0.01438855845,639.9891357,0.02064302005,639.9891357,-8.950445772E-005,
639.00177,0.008444179781,639.00177,0.02495696023,639.00177,-4.224384611E-005,639.00177,0.01556270476,639.00177,0.02064378001,639.00177,-4.250268103E-005,
638.0141602,0.008028591052,638.0141602,0.02435567975,638.0141602,-0.0001100531954,638.0141602,0.01539279427,638.0141602,0.02080022357,638.0141602,-0.0004987432039,
636.989624,0.008276899345,636.989624,0.02444828674,636.989624,-1.154498841E-005,636.989624,0.01526946761,636.989624,0.0211897064,636.989624,-0.0004211674968,
636.0014038,0.008315712214,636.0014038,0.02378202789,636.0014038,-0.0004482688673,636.0014038,0.01490765251,636.0014038,0.02078675479,636.0014038,-0.0002831002057,
635.0129395,0.008513364941,635.0129395,0.02429128997,635.0129395,5.767776747E-005,635.0129395,0.01572717912,635.0129395,0.02110110596,635.0129395,-0.0001670359197,
633.9875488,0.008333338425,633.9875488,0.02434043027,633.9875488,-7.325111073E-005,633.9875488,0.01526174508,633.9875488,0.02144628204,633.9875488,-0.0001927041594,
632.9985352,0.009038746357,632.9985352,0.02478322573,632.9985352,0.0001540488302,632.9985352,0.01586062461,632.9985352,0.02148046903,632.9985352,-1.485829125E-005,
632.0092163,0.008242522366,632.0092163,0.02489960752,632.0092163,0.0003062871983,632.0092163,0.01583345421,632.0092163,0.02138724178,632.0092163,0.0003678659268,
630.9829102,0.008296160027,630.9829102,0.02531575039,630.9829102,0.0005638257135,630.9829102,0.0162766315,630.9829102,0.02129912004,630.9829102,0.0003894995607,
629.993042,0.008538681082,629.993042,0.02442049235,629.993042,-1.263216927E-005,629.993042,0.01649455726,629.993042,0.02163743228,629.993042,7.748361531E-005,
629.0028687,0.008614931256,629.0028687,0.02495188825,629.0028687,0.000319679908,629.0028687,0.01581984386,629.0028687,0.02131962031,629.0028687,0.0001190917828,
628.0123901,0.008580870926,628.0123901,0.02445510589,628.0123901,0.0003694204206,628.0123901,0.01650025882,628.0123901,0.02128843591,628.0123901,-4.281328074E-005,
626.9849854,0.008611181751,626.9849854,0.02515369467,626.9849854,9.387266618E-005,626.9849854,0.01647019759,626.9849854,0.02092054114,626.9849854,-0.0001176616715,
625.9939575,0.008851977065,625.9939575,0.02432739921,625.9939575,0.0005530173657,625.9939575,0.01701407693,625.9939575,0.02158397064,625.9939575,0.0003376324603,
625.0026855,0.008745442145,625.0026855,0.02532041632,625.0026855,0.0001876361348,625.0026855,0.01676653512,625.0026855,0.02179388143,625.0026855,9.542616317E-005,
624.0111084,0.008593016304,624.0111084,0.02567865513,624.0111084,0.0005748675903,624.0111084,0.01737913303,624.0111084,0.02197418362,624.0111084,0.0004152022593,
622.9824829,0.008767998777,622.9824829,0.02547687851,622.9824829,0.0002042624255,622.9824829,0.01707645506,622.9824829,0.0214274358,622.9824829,0.0001284651662,
621.9904175,0.009120847099,621.9904175,0.02532757819,621.9904175,0.0008048670716,621.9904175,0.01759276167,621.9904175,0.02223904431,621.9904175,0.0005882167607,
620.9980469,0.008817528374,620.9980469,0.02559440769,620.9980469,0.0004310339864,620.9980469,0.0174822025,620.9980469,0.02222975343,620.9980469,0.0002450021275,
620.0054321,0.008901937865,620.0054321,0.02545758337,620.0054321,0.0007208490861,620.0054321,0.0178568773,620.0054321,0.02194333449,620.0054321,0.0005167064373,
619.0124512,0.009133245796,619.0124512,0.02531838417,619.0124512,0.0004420984187,619.0124512,0.01748009957,619.0124512,0.02247704938,619.0124512,0.0006255964981,
617.9824829,0.009018316865,617.9824829,0.02583904006,617.9824829,0.0003521142062,617.9824829,0.01762192883,617.9824829,0.02156865597,617.9824829,0.0006284480914,
616.9890137,0.009064649232,616.9890137,0.02512653917,616.9890137,0.0005787038244,616.9890137,0.01835299656,616.9890137,0.02214110643,616.9890137,0.000655253767,
615.9951782,0.008939379826,615.9951782,0.02513783984,615.9951782,0.0004805540375,615.9951782,0.01737889089,615.9951782,0.0214846842,615.9951782,0.0005297946045,
615.0012207,0.008941229433,615.0012207,0.02593682706,615.0012207,0.0007077810587,615.0012207,0.01807853952,615.0012207,0.02201075479,615.0012207,0.0007087404374,
614.006897,0.009098086506,614.006897,0.0262191277,614.006897,0.000758577371,614.006897,0.01856240258,614.006897,0.02217995189,614.006897,0.0007028547698,
613.0122681,0.009044745937,613.0122681,0.02598384582,613.0122681,0.0006614758167,613.0122681,0.01762182079,613.0122681,0.02215159312,613.0122681,0.0007579291123,
612.0174561,0.009344997816,612.0174561,0.02496189438,612.0174561,0.0007929894491,612.0174561,0.01804292016,612.0174561,0.02177398466,612.0174561,0.0007215491496,
610.9855347,0.00901910942,610.9855347,0.02558938414,610.9855347,0.0008740904159,610.9855347,0.01768242754,610.9855347,0.02191496454,610.9855347,0.0009721994866,
609.9900513,0.00944247283,609.9900513,0.02575410157,609.9900513,0.0009319622186,609.9900513,0.01922827214,609.9900513,0.02201187238,609.9900513,0.0009562182822,
608.9944458,0.009575958364,608.9944458,0.02543395013,608.9944458,0.0009426762117,608.9944458,0.01890867576,608.9944458,0.02255976759,608.9944458,0.001136585721,
607.9985352,0.009218933061,607.9985352,0.02651374787,607.9985352,0.001220009173,607.9985352,0.01917372644,607.9985352,0.02224563807,607.9985352,0.001054890803,
607.0023193,0.009585511871,607.0023193,0.02689318731,607.0023193,0.001129448414,607.0023193,0.01893252321,607.0023193,0.02207407355,607.0023193,0.001290441141,
606.0059204,0.00977415964,606.0059204,0.0267408099,606.0059204,0.001521911006,606.0059204,0.01952457614,606.0059204,0.02292386815,606.0059204,0.001405706163,
605.0091553,0.009897392243,605.0091553,0.02666962333,605.0091553,0.001222345512,605.0091553,0.01951117255,605.0091553,0.02290946059,605.0091553,0.001221930142,
604.012146,0.009969934821,604.012146,0.02622352727,604.012146,0.001560488367,604.012146,0.01997441053,604.012146,0.02229917981,604.012146,0.001524222898,
603.0148926,0.009955790825,603.0148926,0.02672811784,603.0148926,0.00168336113,603.0148926,0.02020106092,603.0148926,0.02273801528,603.0148926,0.001476453966,
602.017395,0.01005610544,602.017395,0.02631524019,602.017395,0.001794155687,602.017395,0.0203927774,602.017395,0.02322486229,602.017395,0.001662338502,
600.982605,0.009982065298,600.982605,0.02671892382,600.982605,0.00176488841,600.982605,0.02031573281,600.982605,0.02310368605,600.982605,0.001642304356,
599.9846191,0.01002508402,599.9846191,0.02746569924,599.9846191,0.001711375429,599.9846191,0.02085524425,599.9846191,0.02317281626,599.9846191,0.002015959704,
598.9862671,0.01007759105,598.9862671,0.02648537979,598.9862671,0.001938415458,598.9862671,0.02026034705,598.9862671,0.02312287875,598.9862671,0.001874117879,
597.9876709,0.01038661785,597.9876709,0.02731463686,597.9876709,0.002342436695,597.9876709,0.02094515227,597.9876709,0.02389729396,597.9876709,0.002267670585,
596.9888306,0.01068793051,596.9888306,0.0265720021,596.9888306,0.002412712667,596.9888306,0.02126967721,596.9888306,0.02472312748,596.9888306,0.002329137642,
595.9896851,0.01065015234,595.9896851,0.02760384977,595.9896851,0.002477037953,595.9896851,0.02114401758,595.9896851,0.02393908799,595.9896851,0.002284220653,
594.9903564,0.01070156787,594.9903564,0.02758771181,594.9903564,0.002502630232,594.9903564,0.02114148997,594.9903564,0.02375154197,594.9903564,0.002541893627,
593.9907227,0.01098284218,593.9907227,0.02831703052,593.9907227,0.002805268858,593.9907227,0.02107480168,593.9907227,0.02420200035,593.9907227,0.002764314413,
592.9908447,0.01106231101,592.9908447,0.02823273838,592.9908447,0.002950386144,592.9908447,0.02129993588,592.9908447,0.02416130528,592.9908447,0.003023288911,
591.9907227,0.01097893994,591.9907227,0.02758316137,591.9907227,0.003032777458,591.9907227,0.02181023918,591.9907227,0.02436463349,591.9907227,0.003147384617,
590.9902954,0.01132978965,590.9902954,0.02860204503,590.9902954,0.00346263242,590.9902954,0.02207080461,590.9902954,0.02506502345,590.9902954,0.003258240409,
589.989563,0.01146372408,589.989563,0.02821823582,589.989563,0.003267916618,589.989563,0.02192639932,589.989563,0.02460430004,589.989563,0.003434818005,
588.9886475,0.01201549545,588.9886475,0.02877670527,588.9886475,0.003641877323,588.9886475,0.02261765674,588.9886475,0.02473019809,588.9886475,0.003589568194,
587.9874878,0.01205879543,587.9874878,0.02865781449,587.9874878,0.003616087371,587.9874878,0.02297312766,587.9874878,0.02546068467,587.9874878,0.00386410486,
586.9860229,0.01215054654,586.9860229,0.02868455462,586.9860229,0.004057364073,586.9860229,0.02293066308,586.9860229,0.02540455572,586.9860229,0.004046546761,
585.984314,0.0121861659,585.984314,0.02911034971,585.984314,0.003932851367,585.984314,0.02290252969,585.984314,0.02478958294,585.984314,0.004038420971,
584.9823608,0.01266840938,584.9823608,0.02926970832,584.9823608,0.004578295164,584.9823608,0.02354202233,584.9823608,0.02598684095,584.9823608,0.004459386691,
584.0172119,0.01275322493,584.0172119,0.02986377478,584.0172119,0.004357401747,584.0172119,0.02299053967,584.0172119,0.0259550456,584.0172119,0.004569296259,
583.0147705,0.01299483515,583.0147705,0.0299703218,583.0147705,0.004646709654,583.0147705,0.02369781956,583.0147705,0.02596546151,583.0147705,0.004726597108,
582.0120239,0.0130373789,582.0120239,0.02992885932,582.0120239,0.004810844082,582.0120239,0.02409185283,582.0120239,0.02614019252,582.0120239,0.004787078593,
581.0090332,0.01294584107,581.0090332,0.03005181625,581.0090332,0.004998083226,581.0090332,0.0244349502,581.0090332,0.02627335489,581.0090332,0.005031418521,
580.0058594,0.01319308113,580.0058594,0.03038080595,580.0058594,0.005310537294,580.0058594,0.02411595918,580.0058594,0.02613868006,580.0058594,0.005424672738,
579.0023804,0.01368469931,579.0023804,0.03058651276,579.0023804,0.005604650825,579.0023804,0.02505043522,579.0023804,0.02669219486,579.0023804,0.005763900932,
577.9985962,0.01374865882,577.9985962,0.03046240471,577.9985962,0.005861625541,577.9985962,0.02448427118,577.9985962,0.02732952312,577.9985962,0.005867870059,
576.9945679,0.01395492163,576.9945679,0.03045457415,576.9945679,0.005875846837,576.9945679,0.02498292364,576.9945679,0.02742789499,576.9945679,0.005904369056,
575.9902954,0.01410803851,575.9902954,0.03041900694,575.9902954,0.006010996178,575.9902954,0.02511126362,575.9902954,0.0269719027,575.9902954,0.006246441044,
574.9858398,0.01441058144,574.9858398,0.03156077862,574.9858398,0.006429675967,574.9858398,0.02552599087,574.9858398,0.02789554559,574.9858398,0.006574905943,
574.0183105,0.01443953533,574.0183105,0.03119896166,574.0183105,0.006872007623,574.0183105,0.02633443847,574.0183105,0.02803990617,574.0183105,0.006928132847,
573.0132446,0.01494197175,573.0132446,0.03236470744,573.0132446,0.007146391086,573.0132446,0.02594075724,573.0132446,0.02839006297,573.0132446,0.007253876422,
572.0079956,0.01524600759,572.0079956,0.0323802419,572.0079956,0.007196314167,572.0079956,0.02639247477,572.0079956,0.0283716023,572.0079956,0.007373263128,
571.0025024,0.01531588193,571.0025024,0.03312746435,571.0025024,0.007464582566,571.0025024,0.02637077309,571.0025024,0.02860245854,571.0025024,0.007780793123,
569.9967041,0.0156181138,569.9967041,0.03304606304,569.9967041,0.007849582471,569.9967041,0.02719272859,569.9967041,0.02841034718,569.9967041,0.008027377538,
568.9907837,0.01587442495,568.9907837,0.03388392553,568.9907837,0.008224846795,568.9907837,0.02728720941,568.9907837,0.02986075357,568.9907837,0.008475379087,
567.984436,0.01627329923,567.984436,0.03303659335,567.984436,0.008614905179,567.984436,0.0269300919,567.984436,0.02948524989,567.984436,0.00882001128,
567.0153198,0.01650176384,567.0153198,0.03442711756,567.0153198,0.008757882752,567.0153198,0.02747775055,567.0153198,0.02995958738,567.0153198,0.009173456579,
566.0084839,0.01726294495,566.0084839,0.03386125714,566.0084839,0.009192439727,566.0084839,0.02891283855,566.0084839,0.03031060286,566.0084839,0.009461361915,
565.0015259,0.01727948338,565.0015259,0.03478911147,565.0015259,0.009696144611,565.0015259,0.02876987308,565.0015259,0.03099869192,565.0015259,0.009833441116,
563.9942627,0.01746347174,563.9942627,0.0349730961,563.9942627,0.009987098165,563.9942627,0.02923944406,563.9942627,0.03041559272,563.9942627,0.01021047775,
562.9868164,0.01769189164,562.9868164,0.03621264175,562.9868164,0.01042042207,562.9868164,0.02939785272,562.9868164,0.03143010288,562.9868164,0.01085173711,
562.0163574,0.01857299358,562.0163574,0.0357063897,562.0163574,0.01064909156,562.0163574,0.02968867682,562.0163574,0.0322519131,562.0163574,0.01106690429,
561.0084229,0.01885411516,561.0084229,0.03611780331,561.0084229,0.01120041218,561.0084229,0.03069387563,561.0084229,0.03228492662,561.0084229,0.01162029896,
560.0001221,0.01899904571,560.0001221,0.0367025286,560.0001221,0.01160684507,560.0001221,0.03114111349,560.0001221,0.0324206017,560.0001221,0.01198350918,
558.9916992,0.01961055025,558.9916992,0.03645119816,558.9916992,0.01213185955,558.9916992,0.03118182905,558.9916992,0.03369100019,558.9916992,0.01248715911,
557.9829712,0.01995017938,557.9829712,0.03777423501,557.9829712,0.01257598959,557.9829712,0.03100336157,557.9829712,0.03390536085,557.9829712,0.01285178866,
557.0114136,0.02042492852,557.0114136,0.03855993971,557.0114136,0.01296416298,557.0114136,0.03182845935,557.0114136,0.03435883299,557.0114136,0.01329593547,
556.0021973,0.02085453831,556.0021973,0.03833385557,556.0021973,0.01348676253,556.0021973,0.03221271187,556.0021973,0.03440912813,556.0021973,0.01375114359,
554.9927368,0.02134322003,554.9927368,0.03960516304,554.9927368,0.01381476596,554.9927368,0.032855995,554.9927368,0.03505126759,554.9927368,0.01448131166,
553.9830933,0.0215959698,553.9830933,0.03988003731,553.9830933,0.01439757645,553.9830933,0.03299975395,553.9830933,0.03553667292,553.9830933,0.01483436115,
553.0105591,0.02221844718,553.0105591,0.03983917832,553.0105591,0.01479220297,553.0105591,0.0334607251,553.0105591,0.03619210422,553.0105591,0.01532674208,
552.0003052,0.02267882787,552.0003052,0.04054154828,552.0003052,0.01535854675,552.0003052,0.03375514969,552.0003052,0.03633894026,552.0003052,0.01602550782,
550.9899902,0.02322890237,550.9899902,0.0410262756,550.9899902,0.01609714702,550.9899902,0.03466556221,550.9899902,0.03715129197,550.9899902,0.0165505968,
550.0167847,0.0238472186,550.0167847,0.04182199761,550.0167847,0.01661336608,550.0167847,0.03495306522,550.0167847,0.03732581437,550.0167847,0.01704544015,
549.0058594,0.02418952063,549.0058594,0.0424686335,549.0058594,0.01706315391,549.0058594,0.03546037897,549.0058594,0.03750348464,549.0058594,0.0175954029,
547.9946899,0.02467364073,547.9946899,0.04270616546,547.9946899,0.0178479217,547.9946899,0.03529028222,547.9946899,0.03868052736,547.9946899,0.01818369143,
546.9833984,0.0257838238,546.9833984,0.04331342131,546.9833984,0.01850740239,546.9833984,0.03692793846,546.9833984,0.0390991047,546.9833984,0.0191354733,
546.0092773,0.02580266818,546.0092773,0.04330550134,546.0092773,0.01884527504,546.0092773,0.03754435107,546.0092773,0.03936852515,546.0092773,0.01945236884,
544.9974365,0.02644017711,544.9974365,0.04473181814,544.9974365,0.01966953836,544.9974365,0.03774613887,544.9974365,0.0403588526,544.9974365,0.02053013258,
543.9854126,0.02715872228,543.9854126,0.04566587508,543.9854126,0.02037674375,543.9854126,0.03827329352,543.9854126,0.04090517759,543.9854126,0.02130999416,
543.0105591,0.02784583531,543.0105591,0.0462398231,543.0105591,0.02121824585,543.0105591,0.03896223381,543.0105591,0.04160870612,543.0105591,0.02189435437,
541.9979858,0.02844384313,541.9979858,0.04660439491,541.9979858,0.02172369137,541.9979858,0.04000533,541.9979858,0.04227499664,541.9979858,0.02239680104,
540.9851685,0.0291843731,540.9851685,0.0469433181,540.9851685,0.02248531021,540.9851685,0.0406621173,540.9851685,0.04391216487,540.9851685,0.02328614518,
540.0097046,0.03010921553,540.0097046,0.04796620458,540.0097046,0.02330411598,540.0097046,0.04171594977,540.0097046,0.04415335134,540.0097046,0.02414184809,
538.99646,0.03058106825,538.99646,0.04946603999,538.99646,0.0243776124,538.99646,0.04172204807,538.99646,0.0446819216,538.99646,0.02508756705,
537.9830322,0.03164471686,537.9830322,0.05026352778,537.9830322,0.02519508824,537.9830322,0.04275454953,537.9830322,0.04514185339,537.9830322,0.02615709975,
537.0067749,0.03209045157,537.0067749,0.0508867763,537.0067749,0.02568659186,537.0067749,0.04364906624,537.0067749,0.04652659222,537.0067749,0.02662627213,
535.9928589,0.03301480785,535.9928589,0.05110782012,535.9928589,0.02673321217,535.9928589,0.04449050874,535.9928589,0.04703893512,535.9928589,0.02772849426,
535.0162964,0.03361936659,535.0162964,0.05268369615,535.0162964,0.02777430043,535.0162964,0.04594852403,535.0162964,0.04708540812,535.0162964,0.02882809937,
534.0018921,0.03477427363,534.0018921,0.05326937139,534.0018921,0.02863682806,534.0018921,0.04543568566,534.0018921,0.04869343713,534.0018921,0.02984711155,
532.9871826,0.03603420779,532.9871826,0.05438098311,532.9871826,0.02950162441,532.9871826,0.04750956967,532.9871826,0.04986997321,532.9871826,0.03078220226,
532.0099487,0.03655894846,532.0099487,0.0549281165,532.0099487,0.03054265864,532.0099487,0.04835642129,532.0099487,0.05058554187,532.0099487,0.03174504265,
530.994812,0.0375552997,530.994812,0.05549117923,530.994812,0.03177868575,530.994812,0.04914879799,530.994812,0.05168725923,530.994812,0.03318837285,
530.0170898,0.03847714514,530.0170898,0.05712284148,530.0170898,0.03287068009,530.0170898,0.04937171191,530.0170898,0.05245899037,530.0170898,0.03408415616,
529.0015259,0.0392938219,529.0015259,0.05801330879,529.0015259,0.03381639719,529.0015259,0.05084495619,529.0015259,0.05347113684,529.0015259,0.03515044972,
527.9857178,0.04100579023,527.9857178,0.05883670971,527.9857178,0.03480060771,527.9857178,0.05250981823,527.9857178,0.0543493554,527.9857178,0.03627387434,
527.0073242,0.04153264686,527.0073242,0.05960317701,527.0073242,0.03624187782,527.0073242,0.05321991816,527.0073242,0.05533099174,527.0073242,0.03764684126,
525.9910278,0.04286707938,525.9910278,0.06166334823,525.9910278,0.03725921735,525.9910278,0.05418058485,525.9910278,0.05794778094,525.9910278,0.03881156445,
525.012207,0.04382404685,525.012207,0.06317865849,525.012207,0.03829294443,525.012207,0.05595982447,525.012207,0.05839109793,525.012207,0.04000933468,
523.9955444,0.04544203728,523.9955444,0.06437429041,523.9955444,0.03980652243,523.9955444,0.05721762776,523.9955444,0.05918946862,523.9955444,0.04149231687,
523.0162354,0.04611070082,523.0162354,0.0655471459,523.0162354,0.04128943756,523.0162354,0.05785937235,523.0162354,0.06080941111,523.0162354,0.04291808233,
521.9991455,0.04748843238,521.9991455,0.06597626954,521.9991455,0.04235743731,521.9991455,0.05880268291,521.9991455,0.06108216196,521.9991455,0.04416960105,
520.9817505,0.04881322384,520.9817505,0.06779479235,520.9817505,0.04384666681,520.9817505,0.06016175076,520.9817505,0.06318515539,520.9817505,0.04552510753,
520.0018311,0.04987061024,520.0018311,0.06920383126,520.0018311,0.0452975519,520.0018311,0.06177664921,520.0018311,0.06408209354,520.0018311,0.04708968103,
518.9839478,0.05121676624,518.9839478,0.07037426531,518.9839478,0.04647646099,518.9839478,0.06265345216,518.9839478,0.06564535201,518.9839478,0.04846708104,
518.0036011,0.05214194953,518.0036011,0.07113046944,518.0036011,0.04762905836,518.0036011,0.06423461437,518.0036011,0.06600856781,518.0036011,0.04970061034,
516.9853516,0.05405898765,516.9853516,0.07292931527,516.9853516,0.04923617467,516.9853516,0.06594179571,516.9853516,0.06897893548,516.9853516,0.05153791234,
516.0045776,0.05538812652,516.0045776,0.07340445369,516.0045776,0.05099333823,516.0045776,0.0671556741,516.0045776,0.07007186115,516.0045776,0.05307697505,
514.9859009,0.05657792091,514.9859009,0.07619525492,514.9859009,0.0524430424,514.9859009,0.06853729486,514.9859009,0.07105341554,514.9859009,0.0547423251,
514.0046387,0.05822847784,514.0046387,0.07770962268,514.0046387,0.05390228704,514.0046387,0.07019677758,514.0046387,0.07236693054,514.0046387,0.05645479634,
512.9855347,0.05985190347,512.9855347,0.0783880353,512.9855347,0.05590653047,512.9855347,0.07195176929,512.9855347,0.07424674183,512.9855347,0.05824682862,
512.0039063,0.06109297648,512.0039063,0.08107358217,512.0039063,0.05736205727,512.0039063,0.07276584208,512.0039063,0.07617653161,512.0039063,0.0599046424,
510.9842224,0.06310519576,510.9842224,0.08235277236,510.9842224,0.05948254466,510.9842224,0.07454951853,510.9842224,0.07750865817,510.9842224,0.06212373823,
510.0021667,0.06418771297,510.0021667,0.08466845006,510.0021667,0.06108821183,510.0021667,0.07628719509,510.0021667,0.07903854549,510.0021667,0.06378139555,
508.9820862,0.06629211456,508.9820862,0.08547887206,508.9820862,0.06280054152,508.9820862,0.07763882726,508.9820862,0.08070390671,508.9820862,0.0658210218,
507.9996338,0.06792643666,507.9996338,0.0865591988,507.9996338,0.06469281763,507.9996338,0.07986160368,507.9996338,0.08258254081,507.9996338,0.06761626899,
507.0169678,0.06949861348,507.0169678,0.08871374279,507.0169678,0.06649999321,507.0169678,0.08123921603,507.0169678,0.08404291421,507.0169678,0.06941401958,
505.9962463,0.07157475501,505.9962463,0.09074036777,505.9962463,0.06868611276,505.9962463,0.08269613236,505.9962463,0.08637086302,505.9962463,0.07201354206,
505.0131531,0.07359913737,505.0131531,0.09357806295,505.0131531,0.07051610947,505.0131531,0.08520041406,505.0131531,0.08804371208,505.0131531,0.07399120182,
503.9919739,0.07529720664,503.9919739,0.0945187211,503.9919739,0.07265266776,503.9919739,0.08723273128,503.9919739,0.09032936394,503.9919739,0.07596439868,
503.0084534,0.07726176083,503.0084534,0.09724263847,503.0084534,0.07479918003,503.0084534,0.08924808353,503.0084534,0.09136729687,503.0084534,0.07820402086,
501.9868469,0.07941100001,501.9868469,0.09958789498,501.9868469,0.07701850682,501.9868469,0.09135515243,501.9868469,0.09362417459,501.9868469,0.08044406772,
501.0029297,0.08128019422,501.0029297,0.1019054353,501.0029297,0.07914084196,501.0029297,0.09319210798,501.0029297,0.0950588733,501.0029297,0.08292921633,
500.0187683,0.08338217437,500.0187683,0.1030552164,500.0187683,0.08134496957,500.0187683,0.09569671005,500.0187683,0.0978775993,500.0187683,0.08530153334,
498.996582,0.08562646061,498.996582,0.10574352,498.996582,0.08413600177,498.996582,0.09814944863,498.996582,0.1004908457,498.996582,0.08801324666,
498.0119934,0.08792870492,498.0119934,0.1078941971,498.0119934,0.08636821061,498.0119934,0.1002591699,498.0119934,0.1024423987,498.0119934,0.09046639502,
496.9893188,0.09035288543,496.9893188,0.1100661159,496.9893188,0.08870707452,496.9893188,0.102177389,496.9893188,0.1043632627,496.9893188,0.09283152968,
496.004364,0.09233675897,496.004364,0.1121993512,496.004364,0.09087277949,496.004364,0.1048113033,496.004364,0.1068445221,496.004364,0.09533099085,
494.9812927,0.09424676001,494.9812927,0.1152360141,494.9812927,0.09342254698,494.9812927,0.1071111113,494.9812927,0.1096272841,494.9812927,0.09797694534,
493.9958801,0.09679913521,493.9958801,0.1170607656,493.9958801,0.09604847431,493.9958801,0.1093588173,493.9958801,0.1112574413,493.9958801,0.1006479338,
493.0102844,0.09885428101,493.0102844,0.1197160333,493.0102844,0.09866674989,493.0102844,0.1107338518,493.0102844,0.1136946976,493.0102844,0.1031603143,
491.9866028,0.101501286,491.9866028,0.1216835007,491.9866028,0.1012530178,491.9866028,0.1138193533,491.9866028,0.1159844697,491.9866028,0.105993107,
491.0006104,0.1037526429,491.0006104,0.1238331199,491.0006104,0.1031821743,491.0006104,0.1162559465,491.0006104,0.1179790497,491.0006104,0.1082533523,
490.0144043,0.1063138917,490.0144043,0.1261435449,490.0144043,0.1062798351,490.0144043,0.1185220927,490.0144043,0.1208877936,490.0144043,0.1114812419,
488.9900208,0.1088219136,488.9900208,0.1298443228,488.9900208,0.1091933921,488.9900208,0.1213653013,488.9900208,0.1237076521,488.9900208,0.1145653725,
488.0034485,0.1114864275,488.0034485,0.1311069578,488.0034485,0.1120502278,488.0034485,0.1237750798,488.0034485,0.1255210489,488.0034485,0.1174261943,
487.0166626,0.1143075749,487.0166626,0.1337872148,487.0166626,0.1148175523,487.0166626,0.1270582676,487.0166626,0.1282536089,487.0166626,0.120560199,
485.9916382,0.1170096546,485.9916382,0.1375043541,485.9916382,0.1176899225,485.9916382,0.1293480545,485.9916382,0.1321296692,485.9916382,0.123510763,
485.004425,0.1195116416,485.004425,0.1406256109,485.004425,0.1211267039,485.004425,0.1322722584,485.004425,0.1336298287,485.004425,0.1271669716,
484.0170288,0.1221686453,484.0170288,0.1432462037,484.0170288,0.123604551,484.0170288,0.1346516609,484.0170288,0.1371254772,484.0170288,0.129657656,
482.9914246,0.1249828115,482.9914246,0.1455555558,482.9914246,0.1262506843,482.9914246,0.1372060925,482.9914246,0.139836356,482.9914246,0.1323304027,
482.0036316,0.127757147,482.0036316,0.1486783326,482.0036316,0.1295485198,482.0036316,0.1405476034,482.0036316,0.1432177722,482.0036316,0.1359132826,
481.015625,0.1305669695,481.015625,0.1509931237,481.015625,0.1324943751,481.015625,0.1429142952,481.015625,0.1457341313,481.015625,0.1391968131,
479.9894104,0.1337670386,479.9894104,0.1544026881,479.9894104,0.1359906942,479.9894104,0.1464380324,479.9894104,0.1488390565,479.9894104,0.1427930444,
479.0010071,0.1365216672,479.0010071,0.1574689895,479.0010071,0.139207229,479.0010071,0.14959912,479.0010071,0.1512853056,479.0010071,0.1461615115,
478.0123596,0.1395711899,478.0123596,0.1612814814,478.0123596,0.1424075216,478.0123596,0.1524809897,478.0123596,0.1547256112,478.0123596,0.1495590061,
476.9855347,0.1428725719,476.9855347,0.1641615033,476.9855347,0.1461400539,476.9855347,0.1563156843,476.9855347,0.1575217098,476.9855347,0.1535689235,
475.9965515,0.1463139355,475.9965515,0.1677616388,475.9965515,0.1495015919,475.9965515,0.1592172682,475.9965515,0.1607442051,475.9965515,0.1568972468,
475.0073242,0.1493760794,475.0073242,0.1707107872,475.0073242,0.1530472785,475.0073242,0.1623090357,475.0073242,0.1643236428,475.0073242,0.1607496738,
474.0179443,0.1522322446,474.0179443,0.1742255688,474.0179443,0.1562339962,474.0179443,0.1654196382,474.0179443,0.1672471315,474.0179443,0.1641030312,
472.9902954,0.1561215818,472.9902954,0.1774632931,472.9902954,0.1602200866,472.9902954,0.1690470576,472.9902954,0.1710328609,472.9902954,0.1684084088,
472.0005493,0.1590312719,472.0005493,0.180709064,472.0005493,0.1636426449,472.0005493,0.1725895107,472.0005493,0.1743110269,472.0005493,0.1718638837,
471.0105896,0.1624405235,471.0105896,0.1850625575,471.0105896,0.1673029214,471.0105896,0.1758809984,471.0105896,0.1777911633,471.0105896,0.1756847054,
469.9822998,0.1661559045,469.9822998,0.1881126761,469.9822998,0.1710138768,469.9822998,0.1785482913,469.9822998,0.1809750497,469.9822998,0.1796145886,
468.9919739,0.1689834595,468.9919739,0.1912533492,468.9919739,0.1744386107,468.9919739,0.1822549552,468.9919739,0.1842619926,468.9919739,0.1833000928,
468.0014343,0.1725039482,468.0014343,0.1945284307,468.0014343,0.1783128828,468.0014343,0.1861840934,468.0014343,0.1880116463,468.0014343,0.1872860342,
467.0107117,0.1757930666,467.0107117,0.198142305,467.0107117,0.1819279641,467.0107117,0.1886384785,467.0107117,0.1910319775,467.0107117,0.1911284924,
465.9815674,0.1793398708,465.9815674,0.2018813491,465.9815674,0.1856101602,465.9815674,0.1928320378,465.9815674,0.1948785186,465.9815674,0.1950402558,
464.990448,0.1828993261,464.990448,0.2051796168,464.990448,0.1893652529,464.990448,0.1964338273,464.990448,0.1985454857,464.990448,0.1991345286,
463.9990845,0.1857886463,463.9990845,0.2079532295,463.9990845,0.192721352,463.9990845,0.199152872,463.9990845,0.2009751648,463.9990845,0.2026809603,
463.0075989,0.1897836179,463.0075989,0.2127417326,463.0075989,0.1970523745,463.0075989,0.2031836659,463.0075989,0.2058670521,463.0075989,0.2068683058,
462.0158997,0.1931193322,462.0158997,0.2155476809,462.0158997,0.2005340755,462.0158997,0.2064286768,462.0158997,0.2086010426,462.0158997,0.2105912864,
460.9858704,0.1966257393,460.9858704,0.2202899158,460.9858704,0.2047110051,460.9858704,0.2093338519,460.9858704,0.2117139548,460.9858704,0.2151149809,
459.9938049,0.200473398,459.9938049,0.2234476656,459.9938049,0.2088158131,459.9938049,0.2140964121,459.9938049,0.2154766321,459.9938049,0.2194232345,
459.0015259,0.2040663958,459.0015259,0.2266070843,459.0015259,0.2121672928,459.0015259,0.217824772,459.0015259,0.2193993777,459.0015259,0.2229683548,
458.0090637,0.2077562511,458.0090637,0.2305043042,458.0090637,0.2162361443,458.0090637,0.2218532562,458.0090637,0.2228016108,458.0090637,0.2274198085,
457.0163879,0.2111029029,457.0163879,0.2342698127,457.0163879,0.2200507969,457.0163879,0.2248382121,457.0163879,0.2258868068,457.0163879,0.2313007712,
455.9854126,0.2150056958,455.9854126,0.2381470352,455.9854126,0.2244390398,455.9854126,0.2284843028,455.9854126,0.230723232,455.9854126,0.2359800339,
454.9923706,0.2185876369,454.9923706,0.2417067438,454.9923706,0.2281164676,454.9923706,0.2325592786,454.9923706,0.2336240411,454.9923706,0.2398661524,
453.999176,0.2220753729,453.999176,0.2448375076,453.999176,0.232063368,453.999176,0.2361514866,453.999176,0.2370257974,453.999176,0.2438256592,
453.0057983,0.2258662581,453.0057983,0.2491337061,453.0057983,0.2363251001,453.0057983,0.2401414216,453.0057983,0.2419014275,453.0057983,0.2483575791,
452.0121765,0.2293502241,452.0121765,0.2522776127,452.0121765,0.2398965061,452.0121765,0.2433609217,452.0121765,0.2450392991,452.0121765,0.2521305382,
451.0184326,0.2329321206,451.0184326,0.2560501099,451.0184326,0.2436976582,451.0184326,0.2468602657,451.0184326,0.248299256,451.0184326,0.2561531663,
449.9862671,0.2367290556,449.9862671,0.2607211471,449.9862671,0.2476517409,449.9862671,0.2506593466,449.9862671,0.2522538304,449.9862671,0.2606420517,
448.9920959,0.2404118627,448.9920959,0.2643644512,448.9920959,0.2519750893,448.9920959,0.2541918457,448.9920959,0.256270349,448.9920959,0.2649055719,
447.9977417,0.2441561222,447.9977417,0.2679486275,447.9977417,0.2559413612,447.9977417,0.2580171824,447.9977417,0.2597289383,447.9977417,0.2690301836,
447.0032959,0.2474722564,447.0032959,0.2715575099,447.0032959,0.2597638667,447.0032959,0.2621885836,447.0032959,0.2631900311,447.0032959,0.2729899287,
446.008606,0.2511856258,446.008606,0.2754752934,446.008606,0.2635365725,446.008606,0.2651903629,446.008606,0.2668612003,446.008606,0.2771022618,
445.0137329,0.254612416,445.0137329,0.2790316641,445.0137329,0.2670508921,445.0137329,0.2684480548,445.0137329,0.2702620924,445.0137329,0.2811729908,
444.0186462,0.2582508922,444.0186462,0.2825479209,444.0186462,0.2713638544,444.0186462,0.2730145454,444.0186462,0.2740641832,444.0186462,0.2853845954,
442.985199,0.2622149885,442.985199,0.286631614,442.985199,0.275452584,442.985199,0.2764424682,442.985199,0.2781147659,442.985199,0.2897478044,
441.9897461,0.2653518021,441.9897461,0.290107429,441.9897461,0.2791614532,441.9897461,0.2793298662,441.9897461,0.2811813653,441.9897461,0.2934155762,
440.9941711,0.2685670853,440.9941711,0.2927783728,440.9941711,0.2825676799,440.9941711,0.2829907835,440.9941711,0.2848165929,440.9941711,0.2971661389,
439.9983826,0.2719850242,439.9983826,0.2964841127,439.9983826,0.2860738933,439.9983826,0.2863636613,439.9983826,0.2872970998,439.9983826,0.3007988036,
439.0024414,0.2750405669,439.0024414,0.299905628,439.0024414,0.2895002961,439.0024414,0.2891805768,439.0024414,0.2908217907,439.0024414,0.3044477999,
438.0062866,0.2787065208,438.0062866,0.3030853868,438.0062866,0.2933608592,438.0062866,0.2928620875,438.0062866,0.2949231863,438.0062866,0.3085076809,
437.0099182,0.2817382216,437.0099182,0.3067213297,437.0099182,0.2965318561,437.0099182,0.2962727845,437.0099182,0.2974752188,437.0099182,0.3120072484,
436.0134277,0.2848389447,436.0134277,0.3095677197,436.0134277,0.3000818491,436.0134277,0.2993004918,436.0134277,0.3008157611,436.0134277,0.3155193329,
435.0168152,0.2875866294,435.0168152,0.3129768968,435.0168152,0.3032146692,435.0168152,0.302562654,435.0168152,0.3032009006,435.0168152,0.3188204467,
433.9815674,0.2905786335,433.9815674,0.3164509833,433.9815674,0.3066831529,433.9815674,0.3052568734,433.9815674,0.3062894344,433.9815674,0.3223835528,
432.9845581,0.2940821052,432.9845581,0.3196818829,432.9845581,0.3102942109,432.9845581,0.3090001047,432.9845581,0.3098235428,432.9845581,0.3265838921,
431.9873657,0.2970862687,431.9873657,0.3223490417,431.9873657,0.3133821487,431.9873657,0.3115682006,431.9873657,0.3127230704,431.9873657,0.329683125,
430.9900208,0.2994889021,430.9900208,0.3251989186,430.9900208,0.3163304925,430.9900208,0.3149189353,430.9900208,0.3157915473,430.9900208,0.3327388465,
429.9924316,0.3023763299,429.9924316,0.3285522461,429.9924316,0.3191464841,429.9924316,0.3170149326,429.9924316,0.3181946576,429.9924316,0.3357895017,
428.9946899,0.3054119647,428.9946899,0.330809474,428.9946899,0.3222952485,428.9946899,0.319815129,428.9946899,0.3206527233,428.9946899,0.3388521671,
427.9967957,0.3082930744,427.9967957,0.3339582682,427.9967957,0.3252625763,427.9967957,0.3228969574,427.9967957,0.3242961168,427.9967957,0.3420926929,
426.9986877,0.3109032512,426.9986877,0.3358988166,426.9986877,0.3283838034,426.9986877,0.3255322576,426.9986877,0.3266978562,426.9986877,0.3453939259,
426.0004272,0.3133016825,426.0004272,0.3387081623,426.0004272,0.3310986757,426.0004272,0.3284225762,426.0004272,0.3293401301,426.0004272,0.3482167721,
425.0020142,0.3156603277,425.0020142,0.341248095,425.0020142,0.3333649635,425.0020142,0.3301555514,425.0020142,0.3320778608,425.0020142,0.350625664,
424.003418,0.3177369535,424.003418,0.3429857194,424.003418,0.3358229101,424.003418,0.3326268792,424.003418,0.3339326084,424.003418,0.3533143103,
423.0046082,0.3201352954,423.0046082,0.3460202515,423.0046082,0.3381588757,423.0046082,0.3344446123,423.0046082,0.336492002,423.0046082,0.3558357656,
422.0056763,0.3224041462,422.0056763,0.3484816551,422.0056763,0.3407662511,422.0056763,0.3370629251,422.0056763,0.338648349,422.0056763,0.3583931029,
421.0065918,0.3245631456,421.0065918,0.3507965207,421.0065918,0.3430077136,421.0065918,0.3389746547,421.0065918,0.3408690095,421.0065918,0.3606767952,
420.0072632,0.3262258172,420.0072632,0.3517733216,420.0072632,0.3447121382,420.0072632,0.3407524228,420.0072632,0.3425938785,420.0072632,0.3627028763,
419.007782,0.3281927705,419.007782,0.3541298211,419.007782,0.3466901481,419.007782,0.3427869678,419.007782,0.3442724943,419.007782,0.3646396399,
418.0081177,0.3294332027,418.0081177,0.3551481366,418.0081177,0.3484477699,418.0081177,0.344769001,418.0081177,0.3454912901,418.0081177,0.3664503694,
417.0083923,0.3314223886,417.0083923,0.3580078781,417.0083923,0.3503962159,417.0083923,0.3468795419,417.0083923,0.3472345471,417.0083923,0.3684294224,
416.0083923,0.3332017958,416.0083923,0.359582305,416.0083923,0.3518609703,416.0083923,0.3476597667,416.0083923,0.3496287763,416.0083923,0.3703091741,
415.0082397,0.3346617818,415.0082397,0.3611830473,415.0082397,0.3534131646,415.0082397,0.3494368196,415.0082397,0.3512368798,415.0082397,0.3718785942,
414.0079041,0.335884124,414.0079041,0.3621894419,414.0079041,0.3547840714,414.0079041,0.350107044,414.0079041,0.3520418704,414.0079041,0.3731632531,
413.0074158,0.337426126,413.0074158,0.3633311093,413.0074158,0.3560727835,413.0074158,0.3512392342,413.0074158,0.3538202643,413.0074158,0.3745124042,
412.0067749,0.3383149803,412.0067749,0.3651616275,412.0067749,0.3573827744,412.0067749,0.3528892994,412.0067749,0.3543498516,412.0067749,0.3759773076,
411.0059509,0.3391850889,411.0059509,0.3659826219,411.0059509,0.3586659133,411.0059509,0.3538321853,411.0059509,0.3561732769,411.0059509,0.3773063421,
410.0049133,0.3399952352,410.0049133,0.3675038815,410.0049133,0.3593349755,410.0049133,0.3548209071,410.0049133,0.3561181128,410.0049133,0.3780913353,
409.0038147,0.3409795463,409.0038147,0.367921561,409.0038147,0.3604641557,409.0038147,0.355872333,409.0038147,0.3580403626,409.0038147,0.3789274693,
408.0025024,0.3418111801,408.0025024,0.3681787252,408.0025024,0.3612236381,408.0025024,0.3566794097,408.0025024,0.3583762944,408.0025024,0.38007164,
407.0009766,0.3427394331,407.0009766,0.3698700666,407.0009766,0.3621290922,407.0009766,0.3571993411,407.0009766,0.3593906462,407.0009766,0.3810189962,
405.9993286,0.3431049287,405.9993286,0.3703885078,405.9993286,0.3628314734,405.9993286,0.3580375612,405.9993286,0.3598488867,405.9993286,0.3816040754,
404.9975586,0.3437507153,404.9975586,0.3707436919,404.9975586,0.3634676933,404.9975586,0.3585062623,404.9975586,0.3606850803,404.9975586,0.3823729455,
403.9955139,0.3443408906,403.9955139,0.3713745475,403.9955139,0.3640387356,403.9955139,0.3596989512,403.9955139,0.3607085943,403.9955139,0.3828456104,
402.9933777,0.3455890119,402.9933777,0.3720321059,402.9933777,0.364743948,402.9933777,0.3599173725,402.9933777,0.3616855443,402.9933777,0.3838532865,
401.9910889,0.3464481235,401.9910889,0.3721556067,401.9910889,0.3656896949,401.9910889,0.3616109192,401.9910889,0.3634895682,401.9910889,0.3847070932,
400.9886169,0.3473207951,400.9886169,0.3742143512,400.9886169,0.3666287959,400.9886169,0.3621862829,400.9886169,0.3651417196,400.9886169,0.3858157098,
399.9859619,0.3483321965,399.9859619,0.3755908906,399.9859619,0.3675159514,399.9859619,0.3628078401,399.9859619,0.3650984466,399.9859619,0.3870663643,
398.9831543,0.3492395878,398.9831543,0.3762300909,398.9831543,0.368388623,398.9831543,0.3640428782,398.9831543,0.3654462099,398.9831543,0.3879848421,
398.0187683,0.3505776227,398.0187683,0.3771609068,398.0187683,0.3698564768,398.0187683,0.3660304248,398.0187683,0.3681249321,398.0187683,0.3895325661,
397.015625,0.3520615697,397.015625,0.3787738085,397.015625,0.3714544177,397.015625,0.3671756387,397.015625,0.3696294427,397.015625,0.3909994066,
396.0123596,0.3544272482,396.0123596,0.3801006079,396.0123596,0.3737771809,396.0123596,0.3697071671,396.0123596,0.3723254502,396.0123596,0.3934888244,
395.0088806,0.3564982116,395.0088806,0.3826440871,395.0088806,0.3762481213,395.0088806,0.3719794452,395.0088806,0.3744201064,395.0088806,0.3964822292,
394.0052795,0.3591314554,394.0052795,0.385646373,394.0052795,0.3791052103,394.0052795,0.3742611408,394.0052795,0.37757954,394.0052795,0.3998853862,
393.0015259,0.363758266,393.0015259,0.3891358078,393.0015259,0.3830027878,393.0015259,0.3789973557,393.0015259,0.381860882,393.0015259,0.4040559828,
391.9975891,0.3682091832,391.9975891,0.3933923542,391.9975891,0.3880065382,391.9975891,0.3834845126,391.9975891,0.3867869973,391.9975891,0.4097566009,
390.9935303,0.3729441166,390.9935303,0.3973900974,390.9935303,0.3932211399,390.9935303,0.3893731833,390.9935303,0.3924172819,390.9935303,0.4155733287,
389.9892578,0.3794645369,389.9892578,0.4040801823,389.9892578,0.4001889825,389.9892578,0.3963499665,389.9892578,0.3992680013,389.9892578,0.4231076241,
388.9848633,0.3871809244,388.9848633,0.4123187065,388.9848633,0.4082499743,388.9848633,0.4041847587,388.9848633,0.4082224369,388.9848633,0.4328421652,
388.0189209,0.396264255,388.0189209,0.41995579,388.0189209,0.4178523421,388.0189209,0.4138553739,388.0189209,0.4175443649,388.0189209,0.4428153932,
387.0142212,0.4066407382,387.0142212,0.4302995801,387.0142212,0.4286992848,387.0142212,0.4248981178,387.0142212,0.4286502898,387.0142212,0.4554047883,
386.0093384,0.4186039269,386.0093384,0.4418292642,386.0093384,0.4420832098,386.0093384,0.4375063479,386.0093384,0.4418081939,386.0093384,0.4699274898,
385.0043335,0.4339370131,385.0043335,0.4560850859,385.0043335,0.4579059482,385.0043335,0.4535231292,385.0043335,0.458077848,385.0043335,0.4879028201,
383.999115,0.4513518214,383.999115,0.4726679623,383.999115,0.4767368436,383.999115,0.4730899036,383.999115,0.4768115878,383.999115,0.5087073445,
382.9937744,0.4695069194,382.9937744,0.491293937,382.9937744,0.4963726997,382.9937744,0.4915353656,382.9937744,0.4970918,382.9937744,0.5304528475,
381.9882507,0.4926664531,381.9882507,0.5139316916,381.9882507,0.5213993788,381.9882507,0.5167033076,381.9882507,0.5221014619,381.9882507,0.5583642721,
380.9826355,0.5200164914,380.9826355,0.5394759774,380.9826355,0.5503101945,380.9826355,0.5458747149,380.9826355,0.5517866015,380.9826355,0.591743052,
380.0155029,0.5499664545,380.0155029,0.5689519048,380.0155029,0.582995832,380.0155029,0.578694284,380.0155029,0.5831731558,380.0155029,0.6277319193,
379.0095215,0.5883358717,379.0095215,0.6054167151,379.0095215,0.6222459674,379.0095215,0.6162384748,379.0095215,0.6238335967,379.0095215,0.6712046862,
378.0034485,0.6294092536,378.0034485,0.6447101831,378.0034485,0.6675653458,378.0034485,0.6603047848,378.0034485,0.6685259342,378.0034485,0.721175313,
376.9971313,0.6717956066,376.9971313,0.6865091324,376.9971313,0.7145302892,376.9971313,0.7073917985,376.9971313,0.7153428793,376.9971313,0.7741228342,
375.9907227,0.7203169465,375.9907227,0.7340066433,375.9907227,0.7643125057,375.9907227,0.7585126758,375.9907227,0.7664918303,375.9907227,0.8317902684,
374.9841614,0.7784764767,374.9841614,0.7899551988,374.9841614,0.8266208768,374.9841614,0.8209070563,374.9841614,0.8285133839,374.9841614,0.9015825987,
374.0161438,0.8411000371,374.0161438,0.8476979733,374.0161438,0.8981436491,374.0161438,0.8864594102,374.0161438,0.8979883194,374.0161438,0.9787577987,
373.0092468,0.9090332985,373.0092468,0.9166842103,373.0092468,0.970294416,373.0092468,0.9610580802,373.0092468,0.9711843729,373.0092468,1.061046124,
372.0022278,0.989895463,372.0022278,0.9962731004,372.0022278,1.059054971,372.0022278,1.046410084,372.0022278,1.059231043,372.0022278,1.157207489,
370.9950562,1.071913481,370.9950562,1.074573278,370.9950562,1.147573471,370.9950562,1.132180333,370.9950562,1.144915938,370.9950562,1.258078575,
369.9877319,1.168726087,369.9877319,1.166452765,369.9877319,1.250340223,369.9877319,1.235293984,369.9877319,1.25102067,369.9877319,1.379027724,
369.0190125,1.273046255,369.0190125,1.27240026,369.0190125,1.370254636,369.0190125,1.3526752,369.0190125,1.365368128,369.0190125,1.504494786,
368.0113831,1.390582442,368.0113831,1.380308747,368.0113831,1.493184209,368.0113831,1.473035932,368.0113831,1.491199374,368.0113831,1.643163204,
367.0036011,1.524489284,367.0036011,1.517597795,367.0036011,1.638314843,367.0036011,1.617379427,367.0036011,1.628426075,367.0036011,1.796779394,
365.9956665,1.653117537,365.9956665,1.643146873,365.9956665,1.774484158,365.9956665,1.749189973,365.9956665,1.7753824,365.9956665,1.961359382,
364.9876099,1.800576687,364.9876099,1.785093307,364.9876099,1.954586625,364.9876099,1.911679149,364.9876099,1.927149892,364.9876099,2.142928362,
364.018158,1.963115692,364.018158,1.943710685,364.018158,2.120419264,364.018158,2.09124279,364.018158,2.116155386,364.018158,2.343028784,
363.0097656,2.14296484,363.0097656,2.108104229,363.0097656,2.330137014,363.0097656,2.262758493,363.0097656,2.306891918,363.0097656,2.582289219,
362.0012512,2.34807682,362.0012512,2.304511547,362.0012512,2.507366657,362.0012512,2.465960979,362.0012512,2.505091429,362.0012512,2.74094367,
360.9926147,2.490092993,360.9926147,2.443219423,360.9926147,2.708815336,360.9926147,2.643492222,360.9926147,2.649867296,360.9926147,2.939874649,
359.9837952,2.715882301,359.9837952,2.659887314,359.9837952,2.928930998,359.9837952,2.847083807,359.9837952,2.896544933,359.9837952,3.22689867,
359.0136108,2.914866924,359.0136108,2.871468782,359.0136108,3.199805737,359.0136108,3.18879199,359.0136108,3.092798471,359.0136108,3.810808659,
358.0045471,3.213597059,358.0045471,3.093763113,358.0045471,3.524180412,358.0045471,3.3863554,358.0045471,3.367203951,358.0045471,3.619546413,
356.9953003,3.188695431,356.9953003,3.29258132,356.9953003,3.628787994,356.9953003,3.230486393,356.9953003,3.457892179,356.9953003,3.439991474,
355.9859009,3.746170998,355.9859009,3.471477032,355.9859009,4.130141735,355.9859009,4.214300632,355.9859009,3.619069815,355.9859009,4.633189201,
355.0152283,3.42620635,355.0152283,3.491482258,355.0152283,3.604037762,355.0152283,3.553505182,355.0152283,3.957158089,355.0152283,10,
354.0055542,10,354.0055542,3.739129782,354.0055542,3.804261208,354.0055542,3.681334972,354.0055542,3.559517622,354.0055542,3.414130688,
352.995697,4.194984436,352.995697,3.895375013,352.995697,4.003222466,352.995697,4.552804947,352.995697,3.677556515,352.995697,10,
351.9857788,4.27084589,351.9857788,3.731217384,351.9857788,4.306976795,351.9857788,3.738259315,351.9857788,3.937543154,351.9857788,4.0455966,
351.0144958,3.934691191,351.0144958,10,351.0144958,3.651089907,351.0144958,3.739535332,351.0144958,10,351.0144958,4.111973286,
350.0042419,4.027929306,350.0042419,3.705131769,350.0042419,10,350.0042419,10,350.0042419,10,350.0042419,3.410707474,
348.993866,10,348.993866,10,348.993866,10,348.993866,4.300922871,348.993866,10,348.993866,4.849355221,
347.9833374,4.742630959,347.9833374,10,347.9833374,10,347.9833374,4.276998997,347.9833374,10,347.9833374,3.79312706,
347.0115356,3.800402164,347.0115356,4.386651993,347.0115356,5.325447083,347.0115356,3.80516839,347.0115356,3.827017307,347.0115356,3.888191462,
346.0007629,3.716509104,346.0007629,3.762988091,346.0007629,4.168804169,346.0007629,4.033571243,346.0007629,10,346.0007629,4.343399048,
344.9898071,3.853295803,344.9898071,4.174917221,344.9898071,3.755775452,344.9898071,10,344.9898071,3.698341131,344.9898071,3.955951452,
344.0175781,4.452804089,344.0175781,4.071032524,344.0175781,10,344.0175781,3.843390465,344.0175781,10,344.0175781,3.821540356,
343.0063782,10,343.0063782,4.083465099,343.0063782,10,343.0063782,3.460479259,343.0063782,3.957203627,343.0063782,4.121889591,
341.9950256,10,341.9950256,3.797173738,341.9950256,3.788380861,341.9950256,4.1951828,341.9950256,3.945589542,341.9950256,10,
340.9835205,3.55262208,340.9835205,3.837510824,340.9835205,10,340.9835205,10,340.9835205,4.535363674,340.9835205,10,
340.0107727,10,340.0107727,3.829770327,340.0107727,10,340.0107727,5.022366524,340.0107727,3.828946352,340.0107727,3.956136942,
338.9990234,3.689672947,338.9990234,3.708978415,338.9990234,3.753245831,338.9990234,3.84139514,338.9990234,4.167891026,338.9990234,3.911904573,
337.9871216,3.544750929,337.9871216,4.057870865,337.9871216,4.60109663,337.9871216,10,337.9871216,4.219073772,337.9871216,3.65461421,
337.0139771,10,337.0139771,4.236396313,337.0139771,10,337.0139771,10,337.0139771,4.043014526,337.0139771,10,
336.0018005,10,336.0018005,3.872318268,336.0018005,10,336.0018005,3.879163265,336.0018005,10,336.0018005,10,
334.9894714,4.338410854,334.9894714,4.625844479,334.9894714,3.652523518,334.9894714,3.680477619,334.9894714,3.92771697,334.9894714,10,
334.0159607,3.681091785,334.0159607,4.002932072,334.0159607,10,334.0159607,10,334.0159607,4.801362991,334.0159607,3.591067314,
333.0033875,4.579612255,333.0033875,10,333.0033875,3.892118931,333.0033875,4.105453014,333.0033875,10,333.0033875,4.633876801,
331.9906616,3.810663223,331.9906616,3.592013359,331.9906616,10,331.9906616,4.576577187,331.9906616,4.175869465,331.9906616,3.668802977,
331.0167542,3.637888432,331.0167542,3.731400728,331.0167542,5.386343002,331.0167542,4.619001389,331.0167542,4.51454258,331.0167542,4.36810112,
330.0037842,4.470466614,330.0037842,3.815531015,330.0037842,3.829346418,330.0037842,10,330.0037842,10,330.0037842,3.86625576,
328.9906311,4.173357964,328.9906311,10,328.9906311,3.90258646,328.9906311,10,328.9906311,3.94069171,328.9906311,10,
328.0163574,4.264659405,328.0163574,10,328.0163574,10,328.0163574,4.322203159,328.0163574,4.144739151,328.0163574,10,
327.0029602,10,327.0029602,10,327.0029602,4.66183567,327.0029602,10,327.0029602,4.832566261,327.0029602,4.365161419,
325.9894714,4.282861233,325.9894714,10,325.9894714,3.875375032,325.9894714,3.93745923,325.9894714,4.01910162,325.9894714,10,
325.014801,3.826904774,325.014801,10,325.014801,4.308303833,325.014801,10,325.014801,10,325.014801,10,
324.0010376,5.226380825,324.0010376,4.023761272,324.0010376,3.763171911,324.0010376,10,324.0010376,10,324.0010376,3.966019869,
322.9871216,4.064341545,322.9871216,4.092203617,322.9871216,3.717718601,322.9871216,4.648678303,322.9871216,3.617686272,322.9871216,3.816015482,
322.0121155,3.734421492,322.0121155,10,322.0121155,4.547931194,322.0121155,4.079017162,322.0121155,4.406275749,322.0121155,4.197023869,
320.9979248,10,320.9979248,10,320.9979248,10,320.9979248,10,320.9979248,4.070501328,320.9979248,10,
319.9836121,10,319.9836121,10,319.9836121,10,319.9836121,10,319.9836121,10,319.9836121,10,
319.0082092,10,319.0082092,4.596212387,319.0082092,10,319.0082092,4.009868622,319.0082092,10,319.0082092,4.596735001,
317.9936523,4.683245182,317.9936523,10,317.9936523,10,317.9936523,3.52296114,317.9936523,10,317.9936523,3.880598545,
317.0180054,10,317.0180054,10,317.0180054,10,317.0180054,10,317.0180054,10,317.0180054,10,
316.0032043,4.360771179,316.0032043,3.929151773,316.0032043,5.176571846,316.0032043,10,316.0032043,10,316.0032043,10,
314.9882507,4.090466499,314.9882507,4.080116749,314.9882507,4.224869251,314.9882507,3.872376442,314.9882507,4.358480453,314.9882507,3.802994251,
314.0122375,10,314.0122375,10,314.0122375,4.337403297,314.0122375,10,314.0122375,10,314.0122375,5.267709732,
312.9970093,4.042535305,312.9970093,10,312.9970093,3.758688211,312.9970093,4.089088917,312.9970093,10,312.9970093,10,
311.98172,10,311.98172,3.840131044,311.98172,3.765565634,311.98172,3.894824028,311.98172,4.319887161,311.98172,3.828296423,
311.0053406,4.230323315,311.0053406,4.43336153,311.0053406,10,311.0053406,3.761265755,311.0053406,4.494409561,311.0053406,10,
309.9897461,3.999988794,309.9897461,4.02201128,309.9897461,4.038159847,309.9897461,10,309.9897461,3.989292383,309.9897461,4.305347919,
309.0131226,4.762419701,309.0131226,3.621906042,309.0131226,3.917413712,309.0131226,3.862385511,309.0131226,4.119446754,309.0131226,4.249900818,
307.997345,10,307.997345,4.400405407,307.997345,3.962731361,307.997345,3.852390528,307.997345,3.715258598,307.997345,10,
306.9813843,4.260800362,306.9813843,10,306.9813843,4.177296162,306.9813843,4.391576767,306.9813843,3.7237885,306.9813843,10,
306.004364,4.386464596,306.004364,10,306.004364,3.928415775,306.004364,3.67813611,306.004364,3.873090982,306.004364,4.431766987,
304.9881897,3.956387043,304.9881897,4.517656326,304.9881897,10,304.9881897,4.315302849,304.9881897,3.944864511,304.9881897,4.212054253,
304.0110168,3.829217196,304.0110168,4.181196213,304.0110168,5.026502132,304.0110168,4.093123436,304.0110168,4.344420433,304.0110168,4.074590206,
302.9945679,4.485594273,302.9945679,4.507543564,302.9945679,4.447618961,302.9945679,10,302.9945679,4.113808632,302.9945679,4.089152336,
302.0171204,4.329217434,302.0171204,3.738413095,302.0171204,3.809859276,302.0171204,4.507557392,302.0171204,3.93891263,302.0171204,3.806388378,
301.0004883,10,301.0004883,4.529186726,301.0004883,10,301.0004883,10,301.0004883,10,301.0004883,10,
299.9836426,10,299.9836426,10,299.9836426,4.466522694,299.9836426,10,299.9836426,10,299.9836426,10,
299.0058594,10,299.0058594,10,299.0058594,4.175651073,299.0058594,4.237950325,299.0058594,10,299.0058594,4.399372101,
297.9888306,4.274971962,297.9888306,5.281748295,297.9888306,4.438569546,297.9888306,5.289926052,297.9888306,4.47179842,297.9888306,4.367886066,
297.0107727,4.229646206,297.0107727,4.183280945,297.0107727,4.263957977,297.0107727,3.942282677,297.0107727,4.257763386,297.0107727,3.912243366,
295.9935303,3.869711399,295.9935303,4.532807827,295.9935303,4.302914619,295.9935303,10,295.9935303,4.451111317,295.9935303,4.7273736,
295.0152588,4.143973351,295.0152588,4.229140282,295.0152588,4.056319714,295.0152588,4.126035213,295.0152588,10,295.0152588,5.218636036,
293.9977722,10,293.9977722,4.633003235,293.9977722,4.354214668,293.9977722,4.898100376,293.9977722,4.46536541,293.9977722,4.517276287,
293.0192566,10,293.0192566,10,293.0192566,10,293.0192566,10,293.0192566,10,293.0192566,10,
292.0015259,10,292.0015259,10,292.0015259,10,292.0015259,10,292.0015259,10,292.0015259,4.07900238,
290.9836426,4.776310444,290.9836426,4.311978817,290.9836426,5.198484898,290.9836426,10,290.9836426,10,290.9836426,4.473513126,
290.0048523,3.759606838,290.0048523,3.94815588,290.0048523,3.82198143,290.0048523,3.966843367,290.0048523,3.751179218,290.0048523,3.791712999,
288.9867554,3.817874908,288.9867554,3.702498436,288.9867554,3.727827787,288.9867554,4.103566647,288.9867554,4.0947752,288.9867554,4.055502415,
288.0076904,10,288.0076904,4.161225319,288.0076904,10,288.0076904,10,288.0076904,10,288.0076904,10,
286.9893799,10,286.9893799,5.189978123,286.9893799,4.709170341,286.9893799,10,286.9893799,4.265131474,286.9893799,4.29104805,
286.0101013,10,286.0101013,5.210368156,286.0101013,10,286.0101013,10,286.0101013,4.124623775,286.0101013,5.182957172,
284.9915771,10,284.9915771,10,284.9915771,4.410839558,284.9915771,10,284.9915771,4.404755592,284.9915771,4.161676884,
284.012085,4.870628357,284.012085,4.275417805,284.012085,10,284.012085,10,284.012085,10,284.012085,10,
282.9932861,4.00274086,282.9932861,10,282.9932861,5.190083027,282.9932861,10,282.9932861,4.075503826,282.9932861,4.087853909,
282.0135803,4.23689127,282.0135803,4.881028175,282.0135803,10,282.0135803,10,282.0135803,3.940475225,282.0135803,5.217610836,
280.9945679,3.715270281,280.9945679,3.715129375,280.9945679,3.891133785,280.9945679,3.966510773,280.9945679,3.785266876,280.9945679,3.841906548,
280.0146484,3.818069696,280.0146484,4.296138763,280.0146484,4.214626789,280.0146484,4.412949562,280.0146484,10,280.0146484,3.791606188,
278.9954224,4.142025948,278.9954224,3.876567364,278.9954224,3.785211802,278.9954224,4.465022087,278.9954224,10,278.9954224,3.861597776,
278.0153198,10,278.0153198,10,278.0153198,10,278.0153198,10,278.0153198,10,278.0153198,10,
276.9958496,3.684108973,276.9958496,3.799011707,276.9958496,3.813105822,276.9958496,4.108531952,276.9958496,3.950252533,276.9958496,4.118442535,
276.0154724,4.094828129,276.0154724,3.640427113,276.0154724,4.307726383,276.0154724,3.942768097,276.0154724,3.875037432,276.0154724,3.753757477,
274.9958191,4.108445168,274.9958191,3.737455606,274.9958191,3.841314077,274.9958191,3.960495472,274.9958191,4.137038231,274.9958191,3.800123692,
274.0152588,3.947907448,274.0152588,3.990532875,274.0152588,3.902248144,274.0152588,4.251568794,274.0152588,3.940575838,274.0152588,4.466619968,
272.9953613,10,272.9953613,10,272.9953613,10,272.9953613,10,272.9953613,10,272.9953613,4.552950859,
272.0145569,4.162855625,272.0145569,10,272.0145569,4.550611973,272.0145569,4.313704014,272.0145569,4.235258579,272.0145569,4.087771893,
270.9944763,3.709877253,270.9944763,3.935783625,270.9944763,3.899305582,270.9944763,3.932217836,270.9944763,3.630922794,270.9944763,3.758516312,
270.0134888,3.977265596,270.0134888,3.968813658,270.0134888,3.813909054,270.0134888,3.756951332,270.0134888,10,270.0134888,4.881071091,
268.9931641,4.103878021,268.9931641,3.977413177,268.9931641,10,268.9931641,3.910259724,268.9931641,4.40282917,268.9931641,4.130526066,
268.0119629,4.227293968,268.0119629,3.572118998,268.0119629,4.029642582,268.0119629,3.958890438,268.0119629,4.375383377,268.0119629,3.872496843,
266.9914551,4.0744977,266.9914551,3.677212477,266.9914551,3.878623962,266.9914551,4.08819437,266.9914551,4.122194767,266.9914551,3.750383377,
266.0100403,3.705949068,266.0100403,3.981094122,266.0100403,4.411785603,266.0100403,5.010577202,266.0100403,4.527108669,266.0100403,4.002788067,
264.9892883,4.273795128,264.9892883,3.9650774,264.9892883,4.140586376,264.9892883,4.026879787,264.9892883,3.962335348,264.9892883,4.277740955,
264.0076599,3.857009649,264.0076599,4.225973129,264.0076599,3.896572351,264.0076599,3.836313725,264.0076599,5.339993954,264.0076599,3.886353016,
262.9866943,4.457164764,262.9866943,10,262.9866943,10,262.9866943,10,262.9866943,10,262.9866943,10,
262.0048828,10,262.0048828,10,262.0048828,5.148844242,262.0048828,10,262.0048828,10,262.0048828,10,
260.9837341,3.871072292,260.9837341,3.940375328,260.9837341,4.085130215,260.9837341,3.992009163,260.9837341,4.294734955,260.9837341,4.29032135,
260.001709,3.994960546,260.001709,3.802681208,260.001709,4.014176846,260.001709,3.830537319,260.001709,3.898974657,260.001709,3.949189425,
259.0196533,4.043435097,259.0196533,4.767554283,259.0196533,4.302175522,259.0196533,4.208234787,259.0196533,10,259.0196533,4.946283817,
257.9981384,10,257.9981384,10,257.9981384,10,257.9981384,10,257.9981384,10,257.9981384,10,
257.0158386,4.046591282,257.0158386,3.696888447,257.0158386,4.053748131,257.0158386,3.780140638,257.0158386,3.959761143,257.0158386,4.06259346,
255.9941406,3.995860338,255.9941406,5.003554344,255.9941406,4.394826412,255.9941406,4.160511494,255.9941406,10,255.9941406,10,
255.011673,3.843358278,255.011673,3.897572517,255.011673,10,255.011673,4.114598751,255.011673,4.097466946,255.011673,3.918495417,
253.9897461,10,253.9897461,10,253.9897461,10,253.9897461,10,253.9897461,10,253.9897461,10,
253.0070496,4.968615532,253.0070496,4.463445663,253.0070496,4.182824135,253.0070496,5.242709637,253.0070496,4.56730032,253.0070496,4.509016991,
251.9849548,3.880634785,251.9849548,4.311310768,251.9849548,5.221116066,251.9849548,4.73754549,251.9849548,4.752065182,251.9849548,10,
251.0020752,10,251.0020752,10,251.0020752,4.166049004,251.0020752,10,251.0020752,10,251.0020752,10,
250.0190887,10,250.0190887,4.248633385,250.0190887,3.920179605,250.0190887,4.370895863,250.0190887,4.408409119,250.0190887,3.961581945,
248.9966736,4.132071495,248.9966736,4.353870869,248.9966736,4.414842606,248.9966736,4.01035881,248.9966736,4.804029465,248.9966736,4.783476353,
248.0135193,3.882925987,248.0135193,3.82943511,248.0135193,3.918325186,248.0135193,3.778186321,248.0135193,3.940487862,248.0135193,3.860026121,
246.9909363,3.966884375,246.9909363,3.908899307,246.9909363,3.958839655,246.9909363,3.916757584,246.9909363,3.878549099,246.9909363,4.109241009,
246.0075531,3.863743544,246.0075531,4.142391682,246.0075531,4.364159107,246.0075531,4.119521141,246.0075531,4.085659027,246.0075531,4.173404694,
244.9847412,4.597122669,244.9847412,4.040999889,244.9847412,3.866369009,244.9847412,10,244.9847412,4.071055889,244.9847412,4.52670145,
244.0011902,4.251111507,244.0011902,4.7615695,244.0011902,4.462097645,244.0011902,5.081343651,244.0011902,10,244.0011902,10,
243.0175476,3.866556168,243.0175476,4.178614616,243.0175476,4.153019428,243.0175476,4.06379652,243.0175476,3.962812662,243.0175476,4.044447899,
241.9944458,3.97060895,241.9944458,3.950222254,241.9944458,4.062074661,241.9944458,3.906656265,241.9944458,3.889815092,241.9944458,4.137028217,
241.0106201,4.518053055,241.0106201,10,241.0106201,4.741227627,241.0106201,4.739827633,241.0106201,4.438333511,241.0106201,4.724780083,
239.9873657,3.839871168,239.9873657,3.830394506,239.9873657,4.346977234,239.9873657,4.508528709,239.9873657,4.142826557,239.9873657,3.858427525,
239.0033417,4.018890858,239.0033417,4.024271965,239.0033417,4.572851658,239.0033417,3.900647879,239.0033417,3.914402485,239.0033417,5.025009632,
238.0192261,3.961758614,238.0192261,4.286598206,238.0192261,10,238.0192261,10,238.0192261,4.192376614,238.0192261,4.036476135,
236.9956665,5.014562607,236.9956665,10,236.9956665,5.312384605,236.9956665,4.500938892,236.9956665,4.074701309,236.9956665,4.354628563,
236.0113678,5.334947109,236.0113678,4.350961208,236.0113678,4.289226532,236.0113678,4.221874237,236.0113678,3.907643795,236.0113678,4.705346584,
234.9876099,3.674420118,234.9876099,4.105070114,234.9876099,10,234.9876099,10,234.9876099,3.818272829,234.9876099,3.937302113,
234.0031586,3.973879814,234.0031586,4.012125015,234.0031586,10,234.0031586,10,234.0031586,10,234.0031586,4.749524117,
233.0186005,4.61848259,233.0186005,10,233.0186005,10,233.0186005,10,233.0186005,4.489348412,233.0186005,10,
231.9945526,4.438186169,231.9945526,4.097918034,231.9945526,10,231.9945526,3.545696974,231.9945526,4.571657181,231.9945526,3.919806957,
231.0098114,10,231.0098114,10,231.0098114,3.85394311,231.0098114,4.242822647,231.0098114,10,231.0098114,4.58168602,
229.9855957,4.009084225,229.9855957,3.902640343,229.9855957,10,229.9855957,4.043031216,229.9855957,3.865782499,229.9855957,3.954658747,
229.0006714,4.230607986,229.0006714,4.659255981,229.0006714,5.259390831,229.0006714,10,229.0006714,4.303329945,229.0006714,10,
228.0157013,3.65858984,228.0157013,3.733254194,228.0157013,3.643471241,228.0157013,3.649826288,228.0157013,3.789825439,228.0157013,3.647772074,
226.9911957,3.794952393,226.9911957,3.800065756,226.9911957,3.792071342,226.9911957,3.730129004,226.9911957,3.782601833,226.9911957,3.741234064,
226.0059967,3.804798365,226.0059967,3.867957115,226.0059967,3.83587575,226.0059967,3.955312252,226.0059967,3.98753953,226.0059967,3.857252836,
224.9813385,3.719894886,224.9813385,3.80809474,224.9813385,3.67150116,224.9813385,3.701952457,224.9813385,3.746578693,224.9813385,3.672903538,
223.9959869,3.764317036,223.9959869,3.820481539,223.9959869,3.748607635,223.9959869,3.873568535,223.9959869,3.746947289,223.9959869,4.023049831,
223.0105438,3.888172626,223.0105438,3.747588396,223.0105438,4.064230919,223.0105438,3.880300045,223.0105438,3.878602743,223.0105438,3.822099447,
221.9855957,3.909140348,221.9855957,3.976451635,221.9855957,3.932006836,221.9855957,3.772959232,221.9855957,3.942711115,221.9855957,3.848074436,
221,3.719082117,221,3.743554592,221,3.64646697,221,4.148856163,221,4.049741745,221,3.921443939,
220.0142975,4.012690067,220.0142975,3.898556232,220.0142975,3.961405993,220.0142975,4.451491356,220.0142975,3.895418882,220.0142975,4.144339085,
218.9891205,3.676625729,218.9891205,3.749526978,218.9891205,4.02046299,218.9891205,3.888418198,218.9891205,4.34179306,218.9891205,3.964482307,
218.0032501,3.62250185,218.0032501,3.709188223,218.0032501,3.478430271,218.0032501,3.612809658,218.0032501,3.554665089,218.0032501,3.480788946,
217.0173187,3.851930857,217.0173187,3.917081118,217.0173187,10,217.0173187,4.508167744,217.0173187,10,217.0173187,3.832127094,
215.9918518,3.465961933,215.9918518,3.660622835,215.9918518,3.443318367,215.9918518,3.525146723,215.9918518,3.500128746,215.9918518,3.547139406,
215.0057373,4.000816822,215.0057373,10,215.0057373,3.633783817,215.0057373,4.365469933,215.0057373,4.353192329,215.0057373,4.059684753,
214.0195618,3.461197853,214.0195618,3.681015015,214.0195618,3.583576441,214.0195618,3.676182508,214.0195618,3.61743021,214.0195618,3.546713591,
212.9938354,4.277422905,212.9938354,4.304529667,212.9938354,4.319011211,212.9938354,10,212.9938354,10,212.9938354,4.153330326,
212.0074921,3.543280125,212.0074921,3.52230382,212.0074921,3.46351552,212.0074921,3.452525616,212.0074921,3.666986942,212.0074921,3.834225893,
210.9815826,3.613901377,210.9815826,3.565145731,210.9815826,3.475610733,210.9815826,3.617237091,210.9815826,3.592779636,210.9815826,3.479114771,
209.9950714,3.435435534,209.9950714,3.498754263,209.9950714,3.57369256,209.9950714,3.460555077,209.9950714,3.705787659,209.9950714,3.554195404,
209.0084534,3.443789482,209.0084534,3.657119036,209.0084534,3.632844925,209.0084534,3.678345203,209.0084534,3.729817867,209.0084534,3.54088378,
207.9823303,3.926459074,207.9823303,4.260914326,207.9823303,4.12537241,207.9823303,4.30450058,207.9823303,10,207.9823303,3.878658295,
206.995575,4.231791496,206.995575,4.463857651,206.995575,3.819333792,206.995575,5.015776157,206.995575,4.316597462,206.995575,10,
206.0087585,3.511337042,206.0087585,3.470457792,206.0087585,3.6338799,206.0087585,3.479353666,206.0087585,3.757129669,206.0087585,3.455594778,
204.9823456,3.417927027,204.9823456,3.532385588,204.9823456,3.409095049,204.9823456,3.475971699,204.9823456,3.513913631,204.9823456,3.572496891,
203.9953613,3.585858583,203.9953613,3.402652502,203.9953613,3.599201679,203.9953613,3.525553465,203.9953613,3.436007261,203.9953613,3.609497547,
203.0082855,3.621694803,203.0082855,3.598758459,203.0082855,3.437236071,203.0082855,3.422010183,203.0082855,3.865077019,203.0082855,3.600492716,
201.9816742,3.408248901,201.9816742,3.483700037,201.9816742,3.484791517,201.9816742,3.350170135,201.9816742,3.462010145,201.9816742,3.361146688,
200.9944458,3.282792807,200.9944458,3.501768827,200.9944458,3.397368431,200.9944458,3.745821714,200.9944458,3.30924654,200.9944458,3.463501215,
200.0071564,3.424654245,200.0071564,3.546572685,200.0071564,3.265445709,200.0071564,3.472409725,200.0071564,3.511973619,200.0071564,3.282252073,

LN46_0.75_1_0.5mL_s_0.5mL_Ti_1h,
LN46_0.75_1_0.5mL_s_0.5mL_Ti_1h
Collection Time: 2/1/2024 10:52:21 AM
Operator Name  :
Scan Version 5.0.0.999
Parameter List :
Instrument  Cary 60
Instrument Version  2.00
Start (nm)  800.0
Stop (nm)  200.0
X Mode  Nanometers
Y Mode  Abs
UV-Vis Scan Rate (nm/min)  600.00
UV-Vis Data Interval (nm)  1.00
UV-Vis Ave. Time (sec)  0.1000
Beam Mode  Dual Beam
Baseline Correction  On
Baseline Type  Baseline correction
Baseline File Name
Baseline Std Ref File Name
Cycle Mode  Off
Method Log     :
Method Name    :
Date/Time stamp: 2/1/2024 9:15:53 AM
Method Modifications:
UVVIS SAT Changed: 2/1/2024 10:09:19 AM, Old:0.0125, New:0.1000
Common SAT Changed: 2/1/2024 10:09:19 AM, Old:0.0125, New:0.1000
Common Interval nm Changed: 2/1/2024 10:09:22 AM, Old:     5.00, New:     1.00
Baseline Correction Changed: 2/1/2024 10:09:22 AM, Old:0, New:1
End Method Modifications
<Current Wavelength> , 211.0

LN46_0.75_2_0.5mL_s_0.5mL_Ti_1h,
LN46_0.75_2_0.5mL_s_0.5mL_Ti_1h
Collection Time: 2/1/2024 10:54:45 AM
Operator Name  :
Scan Version 5.0.0.999
Parameter List :
Instrument  Cary 60
Instrument Version  2.00
Start (nm)  800.0
Stop (nm)  200.0
X Mode  Nanometers
Y Mode  Abs
UV-Vis Scan Rate (nm/min)  600.00
UV-Vis Data Interval (nm)  1.00
UV-Vis Ave. Time (sec)  0.1000
Beam Mode  Dual Beam
Baseline Correction  On
Baseline Type  Baseline correction
Baseline File Name
Baseline Std Ref File Name
Cycle Mode  Off
Method Log     :
Method Name    :
Date/Time stamp: 2/1/2024 9:15:53 AM
Method Modifications:
UVVIS SAT Changed: 2/1/2024 10:09:19 AM, Old:0.0125, New:0.1000
Common SAT Changed: 2/1/2024 10:09:19 AM, Old:0.0125, New:0.1000
Common Interval nm Changed: 2/1/2024 10:09:22 AM, Old:     5.00, New:     1.00
Baseline Correction Changed: 2/1/2024 10:09:22 AM, Old:0, New:1
End Method Modifications
<Current Wavelength> , 207.0

LN46_0.75_2_0.5mL_s_0.5mL_Ti_1h_r,
LN46_0.75_2_0.5mL_s_0.5mL_Ti_1h_r
Collection Time: 2/1/2024 10:55:51 AM
Operator Name  :
Scan Version 5.0.0.999
Parameter List :
Instrument  Cary 60
Instrument Version  2.00
Start (nm)  800.0
Stop (nm)  200.0
X Mode  Nanometers
Y Mode  Abs
UV-Vis Scan Rate (nm/min)  600.00
UV-Vis Data Interval (nm)  1.00
UV-Vis Ave. Time (sec)  0.1000
Beam Mode  Dual Beam
Baseline Correction  On
Baseline Type  Baseline correction
Baseline File Name
Baseline Std Ref File Name
Cycle Mode  Off
Method Log     :
Method Name    :
Date/Time stamp: 2/1/2024 9:15:53 AM
Method Modifications:
UVVIS SAT Changed: 2/1/2024 10:09:19 AM, Old:0.0125, New:0.1000
Common SAT Changed: 2/1/2024 10:09:19 AM, Old:0.0125, New:0.1000
Common Interval nm Changed: 2/1/2024 10:09:22 AM, Old:     5.00, New:     1.00
Baseline Correction Changed: 2/1/2024 10:09:22 AM, Old:0, New:1
End Method Modifications
<Current Wavelength> , 201.0

LN46_0.75_3_0.5mL_s_0.5mL_Ti_1h,
LN46_0.75_3_0.5mL_s_0.5mL_Ti_1h
Collection Time: 2/1/2024 10:57:29 AM
Operator Name  :
Scan Version 5.0.0.999
Parameter List :
Instrument  Cary 60
Instrument Version  2.00
Start (nm)  800.0
Stop (nm)  200.0
X Mode  Nanometers
Y Mode  Abs
UV-Vis Scan Rate (nm/min)  600.00
UV-Vis Data Interval (nm)  1.00
UV-Vis Ave. Time (sec)  0.1000
Beam Mode  Dual Beam
Baseline Correction  On
Baseline Type  Baseline correction
Baseline File Name
Baseline Std Ref File Name
Cycle Mode  Off
Method Log     :
Method Name    :
Date/Time stamp: 2/1/2024 9:15:53 AM
Method Modifications:
UVVIS SAT Changed: 2/1/2024 10:09:19 AM, Old:0.0125, New:0.1000
Common SAT Changed: 2/1/2024 10:09:19 AM, Old:0.0125, New:0.1000
Common Interval nm Changed: 2/1/2024 10:09:22 AM, Old:     5.00, New:     1.00
Baseline Correction Changed: 2/1/2024 10:09:22 AM, Old:0, New:1
End Method Modifications
<Current Wavelength> , 202.0

LN46_0.75_3_0.5mL_s_0.5mL_Ti_1h_r,
LN46_0.75_3_0.5mL_s_0.5mL_Ti_1h_r
Collection Time: 2/1/2024 10:58:38 AM
Operator Name  :
Scan Version 5.0.0.999
Parameter List :
Instrument  Cary 60
Instrument Version  2.00
Start (nm)  800.0
Stop (nm)  200.0
X Mode  Nanometers
Y Mode  Abs
UV-Vis Scan Rate (nm/min)  600.00
UV-Vis Data Interval (nm)  1.00
UV-Vis Ave. Time (sec)  0.1000
Beam Mode  Dual Beam
Baseline Correction  On
Baseline Type  Baseline correction
Baseline File Name
Baseline Std Ref File Name
Cycle Mode  Off
Method Log     :
Method Name    :
Date/Time stamp: 2/1/2024 9:15:53 AM
Method Modifications:
UVVIS SAT Changed: 2/1/2024 10:09:19 AM, Old:0.0125, New:0.1000
Common SAT Changed: 2/1/2024 10:09:19 AM, Old:0.0125, New:0.1000
Common Interval nm Changed: 2/1/2024 10:09:22 AM, Old:     5.00, New:     1.00
Baseline Correction Changed: 2/1/2024 10:09:22 AM, Old:0, New:1
End Method Modifications
<Current Wavelength> , 200.0

LN46_0.75_4_0.5mL_s_0.5mL_Ti_1h,
LN46_0.75_4_0.5mL_s_0.5mL_Ti_1h
Collection Time: 2/1/2024 11:01:35 AM
Operator Name  :
Scan Version 5.0.0.999
Parameter List :
Instrument  Cary 60
Instrument Version  2.00
Start (nm)  800.0
Stop (nm)  200.0
X Mode  Nanometers
Y Mode  Abs
UV-Vis Scan Rate (nm/min)  600.00
UV-Vis Data Interval (nm)  1.00
UV-Vis Ave. Time (sec)  0.1000
Beam Mode  Dual Beam
Baseline Correction  On
Baseline Type  Baseline correction
Baseline File Name
Baseline Std Ref File Name
Cycle Mode  Off
Method Log     :
Method Name    :
Date/Time stamp: 2/1/2024 9:15:53 AM
Method Modifications:
UVVIS SAT Changed: 2/1/2024 10:09:19 AM, Old:0.0125, New:0.1000
Common SAT Changed: 2/1/2024 10:09:19 AM, Old:0.0125, New:0.1000
Common Interval nm Changed: 2/1/2024 10:09:22 AM, Old:     5.00, New:     1.00
Baseline Correction Changed: 2/1/2024 10:09:22 AM, Old:0, New:1
End Method Modifications
<Current Wavelength> , 200.0

